I,II,III,aVR,aVL,aVF,V1,V2,V3,V4,V5,V6
-10.000000000000044,-0.0,20.00000000000009,-0.0,-20.00000000000009,10.000000000000044,-0.0,-0.0,270.0000000000012,250.0000000000011,-0.0,-0.0
-10.000000000000044,-0.0,30.000000000000135,-0.0,-20.00000000000009,20.00000000000009,-0.0,240.00000000000108,240.00000000000108,230.00000000000102,190.00000000000085,130.00000000000057
-10.000000000000044,10.000000000000044,30.000000000000135,-0.0,-20.00000000000009,20.00000000000009,-0.0,210.00000000000094,210.00000000000094,200.00000000000088,170.00000000000077,120.00000000000054
-10.000000000000044,10.000000000000044,30.000000000000135,-0.0,-20.00000000000009,30.000000000000135,-0.0,180.0000000000008,180.0000000000008,170.00000000000077,150.00000000000065,100.00000000000044
-10.000000000000044,20.00000000000009,40.00000000000018,-10.000000000000044,-20.00000000000009,40.00000000000018,-0.0,150.00000000000065,150.00000000000065,140.00000000000063,130.00000000000057,90.0000000000004
-0.0,30.000000000000135,50.00000000000022,-20.00000000000009,-20.00000000000009,50.00000000000022,-0.0,130.00000000000057,120.00000000000054,120.00000000000054,110.00000000000048,80.00000000000036
-0.0,40.00000000000018,50.00000000000022,-20.00000000000009,-30.000000000000135,50.00000000000022,-0.0,110.00000000000048,100.00000000000044,100.00000000000044,90.0000000000004,60.00000000000027
-0.0,50.00000000000022,70.00000000000031,-30.000000000000135,-30.000000000000135,60.00000000000027,-0.0,90.0000000000004,80.00000000000036,80.00000000000036,80.00000000000036,50.00000000000022
-0.0,60.00000000000027,70.00000000000031,-40.00000000000018,-30.000000000000135,70.00000000000031,-0.0,70.00000000000031,70.00000000000031,60.00000000000027,60.00000000000027,40.00000000000018
-0.0,70.00000000000031,80.00000000000036,-40.00000000000018,-30.000000000000135,80.00000000000036,-0.0,60.00000000000027,50.00000000000022,50.00000000000022,50.00000000000022,30.000000000000135
-0.0,80.00000000000036,90.0000000000004,-50.00000000000022,-40.00000000000018,90.0000000000004,-0.0,50.00000000000022,40.00000000000018,40.00000000000018,40.00000000000018,20.00000000000009
10.000000000000044,90.0000000000004,90.0000000000004,-60.00000000000027,-30.000000000000135,100.00000000000044,10.000000000000044,40.00000000000018,30.000000000000135,30.000000000000135,30.000000000000135,10.000000000000044
20.00000000000009,100.00000000000044,90.0000000000004,-70.00000000000031,-30.000000000000135,100.00000000000044,-0.0,30.000000000000135,20.00000000000009,20.00000000000009,20.00000000000009,10.000000000000044
30.000000000000135,110.00000000000048,90.0000000000004,-80.00000000000036,-30.000000000000135,100.00000000000044,-0.0,20.00000000000009,20.00000000000009,10.000000000000044,10.000000000000044,-0.0
40.00000000000018,120.00000000000054,100.00000000000044,-90.0000000000004,-20.00000000000009,110.00000000000048,-0.0,20.00000000000009,10.000000000000044,10.000000000000044,10.000000000000044,-0.0
40.00000000000018,140.00000000000063,100.00000000000044,-100.00000000000044,-20.00000000000009,120.00000000000054,-0.0,10.000000000000044,10.000000000000044,-0.0,-0.0,-0.0
50.00000000000022,150.00000000000065,100.00000000000044,-100.00000000000044,-20.00000000000009,120.00000000000054,-0.0,10.000000000000044,-0.0,-0.0,-0.0,-0.0
50.00000000000022,150.00000000000065,100.00000000000044,-100.00000000000044,-20.00000000000009,130.00000000000057,-0.0,-0.0,-0.0,-0.0,-0.0,-0.0
50.00000000000022,150.00000000000065,100.00000000000044,-100.00000000000044,-20.00000000000009,120.00000000000054,-0.0,-0.0,-0.0,-0.0,-0.0,-0.0
40.00000000000018,150.00000000000065,90.0000000000004,-90.0000000000004,-20.00000000000009,110.00000000000048,-0.0,-0.0,-0.0,-0.0,-0.0,-0.0
40.00000000000018,140.00000000000063,90.0000000000004,-90.0000000000004,-20.00000000000009,110.00000000000048,-0.0,-0.0,-0.0,-0.0,-0.0,-0.0
30.000000000000135,130.00000000000057,80.00000000000036,-80.00000000000036,-20.00000000000009,100.00000000000044,-0.0,-0.0,-0.0,-0.0,-0.0,-0.0
20.00000000000009,120.00000000000054,70.00000000000031,-70.00000000000031,-20.00000000000009,90.0000000000004,-0.0,-0.0,-0.0,-0.0,-0.0,-0.0
10.000000000000044,100.00000000000044,60.00000000000027,-50.00000000000022,-20.00000000000009,70.00000000000031,-0.0,-0.0,-0.0,-0.0,-0.0,-0.0
-0.0,80.00000000000036,60.00000000000027,-40.00000000000018,-20.00000000000009,60.00000000000027,-0.0,-0.0,-0.0,-0.0,-0.0,-0.0
-0.0,60.00000000000027,40.00000000000018,-20.00000000000009,-20.00000000000009,40.00000000000018,-0.0,-0.0,-0.0,-0.0,-0.0,-0.0
-10.000000000000044,40.00000000000018,40.00000000000018,-10.000000000000044,-20.00000000000009,30.000000000000135,-0.0,-0.0,-0.0,-0.0,-0.0,-0.0
-20.00000000000009,20.00000000000009,40.00000000000018,-0.0,-30.000000000000135,30.000000000000135,-0.0,-0.0,-0.0,-0.0,-0.0,-0.0
-20.00000000000009,20.00000000000009,40.00000000000018,-0.0,-30.000000000000135,20.00000000000009,-0.0,-0.0,-0.0,-0.0,-0.0,-0.0
-30.000000000000135,10.000000000000044,30.000000000000135,10.000000000000044,-30.000000000000135,10.000000000000044,-0.0,-0.0,-0.0,-0.0,-0.0,-0.0
-40.00000000000018,-0.0,40.00000000000018,10.000000000000044,-40.00000000000018,10.000000000000044,-0.0,-0.0,-0.0,-0.0,-0.0,-0.0
-50.00000000000022,-0.0,50.00000000000022,20.00000000000009,-50.00000000000022,20.00000000000009,-0.0,-0.0,-0.0,-0.0,-0.0,-0.0
-50.00000000000022,-0.0,50.00000000000022,20.00000000000009,-50.00000000000022,20.00000000000009,-0.0,-0.0,-0.0,-0.0,-0.0,-0.0
-50.00000000000022,-0.0,50.00000000000022,20.00000000000009,-50.00000000000022,20.00000000000009,-0.0,-0.0,-0.0,10.000000000000044,-0.0,-0.0
-60.00000000000027,-0.0,50.00000000000022,30.000000000000135,-60.00000000000027,20.00000000000009,-0.0,-0.0,10.000000000000044,10.000000000000044,-0.0,-0.0
-60.00000000000027,-0.0,60.00000000000027,30.000000000000135,-60.00000000000027,20.00000000000009,-0.0,-0.0,10.000000000000044,10.000000000000044,-0.0,-0.0
-60.00000000000027,-0.0,60.00000000000027,30.000000000000135,-60.00000000000027,20.00000000000009,-0.0,-0.0,10.000000000000044,10.000000000000044,-0.0,-0.0
-70.00000000000031,-0.0,60.00000000000027,30.000000000000135,-60.00000000000027,20.00000000000009,-0.0,-0.0,20.00000000000009,10.000000000000044,-0.0,-0.0
-80.00000000000036,-0.0,70.00000000000031,40.00000000000018,-70.00000000000031,20.00000000000009,-0.0,-0.0,20.00000000000009,20.00000000000009,-0.0,-0.0
-80.00000000000036,-0.0,70.00000000000031,40.00000000000018,-70.00000000000031,30.000000000000135,-0.0,-0.0,20.00000000000009,10.000000000000044,-0.0,-0.0
-80.00000000000036,-0.0,70.00000000000031,40.00000000000018,-70.00000000000031,30.000000000000135,-0.0,-0.0,20.00000000000009,10.000000000000044,-0.0,-0.0
-80.00000000000036,-0.0,70.00000000000031,40.00000000000018,-80.00000000000036,30.000000000000135,-0.0,-0.0,20.00000000000009,10.000000000000044,-0.0,-0.0
-90.0000000000004,-10.000000000000044,70.00000000000031,50.00000000000022,-80.00000000000036,20.00000000000009,-0.0,-0.0,30.000000000000135,10.000000000000044,-0.0,-0.0
-90.0000000000004,-10.000000000000044,60.00000000000027,50.00000000000022,-80.00000000000036,10.000000000000044,-0.0,10.000000000000044,20.00000000000009,10.000000000000044,-0.0,-0.0
-100.00000000000044,-20.00000000000009,60.00000000000027,60.00000000000027,-80.00000000000036,10.000000000000044,-0.0,10.000000000000044,20.00000000000009,10.000000000000044,-0.0,-0.0
-120.00000000000054,-30.000000000000135,60.00000000000027,80.00000000000036,-90.0000000000004,-0.0,-0.0,10.000000000000044,30.000000000000135,10.000000000000044,-0.0,-0.0
-130.00000000000057,-50.00000000000022,40.00000000000018,90.0000000000004,-90.0000000000004,-10.000000000000044,-0.0,10.000000000000044,20.00000000000009,10.000000000000044,-0.0,-0.0
-130.00000000000057,-80.00000000000036,20.00000000000009,110.00000000000048,-80.00000000000036,-30.000000000000135,-0.0,10.000000000000044,20.00000000000009,10.000000000000044,-0.0,-0.0
-130.00000000000057,-100.00000000000044,10.000000000000044,110.00000000000048,-70.00000000000031,-40.00000000000018,-0.0,10.000000000000044,20.00000000000009,10.000000000000044,-0.0,-0.0
-110.00000000000048,-100.00000000000044,10.000000000000044,90.0000000000004,-70.00000000000031,-30.000000000000135,-0.0,10.000000000000044,20.00000000000009,10.000000000000044,-0.0,-0.0
-70.00000000000031,-90.0000000000004,20.00000000000009,50.00000000000022,-40.00000000000018,-10.000000000000044,-0.0,10.000000000000044,20.00000000000009,-0.0,-0.0,-0.0
-0.0,-500.0000000000022,20.00000000000009,-20.00000000000009,-10.000000000000044,30.000000000000135,-0.0,10.000000000000044,20.00000000000009,-0.0,-0.0,-0.0
100.00000000000044,-500.0000000000022,60.00000000000027,-140.00000000000063,20.00000000000009,110.00000000000048,-0.0,10.000000000000044,10.000000000000044,-0.0,-0.0,-0.0
240.00000000000108,-500.0000000000022,110.00000000000048,-310.00000000000136,60.00000000000027,240.00000000000108,-0.0,10.000000000000044,10.000000000000044,-0.0,-0.0,-0.0
420.0000000000019,-500.0000000000022,170.00000000000077,-390.0000000000017,120.00000000000054,-290.0000000000013,-0.0,10.000000000000044,10.000000000000044,-0.0,-0.0,-0.0
600.0000000000026,-500.0000000000022,220.00000000000097,-290.0000000000013,180.0000000000008,-290.0000000000013,-0.0,10.000000000000044,10.000000000000044,-0.0,-0.0,-0.0
740.0000000000033,-500.0000000000022,270.0000000000012,-290.0000000000013,230.00000000000102,-290.0000000000013,-0.0,10.000000000000044,-0.0,-0.0,-0.0,-0.0
830.0000000000036,-500.0000000000022,320.0000000000014,-290.0000000000013,250.0000000000011,-290.0000000000013,-0.0,10.000000000000044,-0.0,-0.0,-0.0,-0.0
870.0000000000039,-500.0000000000022,320.0000000000014,-290.0000000000013,260.00000000000114,-290.0000000000013,-0.0,10.000000000000044,-0.0,-0.0,-0.0,-0.0
830.0000000000036,-500.0000000000022,290.0000000000013,-190.00000000000085,260.00000000000114,-290.0000000000013,-0.0,10.000000000000044,-0.0,-0.0,-0.0,-0.0
750.0000000000033,-500.0000000000022,270.0000000000012,-190.00000000000085,230.00000000000102,-290.0000000000013,-0.0,10.000000000000044,-0.0,-0.0,-0.0,-0.0
640.0000000000028,-500.0000000000022,240.00000000000108,-190.00000000000085,190.00000000000085,-290.0000000000013,-0.0,-0.0,-0.0,-0.0,-10.000000000000044,-0.0
520.0000000000023,-500.0000000000022,170.00000000000077,-190.00000000000085,170.00000000000077,-290.0000000000013,-0.0,-0.0,-0.0,-0.0,-10.000000000000044,-0.0
400.00000000000176,-500.0000000000022,100.00000000000044,-190.00000000000085,140.00000000000063,-290.0000000000013,-0.0,-0.0,-0.0,-0.0,-0.0,-0.0
290.0000000000013,-500.0000000000022,50.00000000000022,-190.00000000000085,110.00000000000048,-290.0000000000013,-0.0,-0.0,-0.0,-0.0,-10.000000000000044,-0.0
200.00000000000088,-500.0000000000022,10.000000000000044,-210.00000000000094,80.00000000000036,-290.0000000000013,-0.0,-0.0,-0.0,-0.0,-10.000000000000044,-0.0
120.00000000000054,-500.0000000000022,-20.00000000000009,-110.00000000000048,60.00000000000027,-290.0000000000013,-0.0,-0.0,-0.0,-0.0,-10.000000000000044,-0.0
60.00000000000027,-500.0000000000022,-30.000000000000135,-50.00000000000022,40.00000000000018,-290.0000000000013,-0.0,-0.0,-0.0,-0.0,-10.000000000000044,-0.0
20.00000000000009,-500.0000000000022,-20.00000000000009,-20.00000000000009,20.00000000000009,-290.0000000000013,-0.0,-0.0,-0.0,-0.0,-10.000000000000044,-0.0
20.00000000000009,-500.0000000000022,-20.00000000000009,-10.000000000000044,20.00000000000009,-190.00000000000085,-0.0,-0.0,-0.0,-0.0,-10.000000000000044,-0.0
10.000000000000044,-500.0000000000022,-30.000000000000135,-0.0,20.00000000000009,-20.00000000000009,-0.0,-0.0,-0.0,-0.0,-10.000000000000044,-0.0
-0.0,-500.0000000000022,-30.000000000000135,-0.0,10.000000000000044,-20.00000000000009,-0.0,-0.0,-0.0,-0.0,-10.000000000000044,-0.0
-0.0,-500.0000000000022,-20.00000000000009,10.000000000000044,-0.0,-20.00000000000009,-0.0,-0.0,-0.0,-0.0,-10.000000000000044,-0.0
-10.000000000000044,-500.0000000000022,-10.000000000000044,10.000000000000044,-0.0,-20.00000000000009,-0.0,-0.0,-0.0,-0.0,-10.000000000000044,-0.0
-10.000000000000044,-500.0000000000022,-20.00000000000009,20.00000000000009,-0.0,-30.000000000000135,-0.0,-0.0,-0.0,-0.0,-10.000000000000044,-0.0
-10.000000000000044,-500.0000000000022,-30.000000000000135,20.00000000000009,-0.0,-30.000000000000135,-0.0,-0.0,-0.0,-10.000000000000044,-10.000000000000044,-0.0
-0.0,-500.0000000000022,-30.000000000000135,20.00000000000009,10.000000000000044,-40.00000000000018,-0.0,-0.0,-10.000000000000044,-10.000000000000044,-10.000000000000044,-0.0
-0.0,-500.0000000000022,-40.00000000000018,20.00000000000009,10.000000000000044,-40.00000000000018,-0.0,-0.0,-10.000000000000044,-10.000000000000044,-10.000000000000044,-0.0
-0.0,-500.0000000000022,-40.00000000000018,20.00000000000009,10.000000000000044,-40.00000000000018,-0.0,-0.0,-10.000000000000044,-10.000000000000044,-10.000000000000044,-0.0
-0.0,-500.0000000000022,-50.00000000000022,20.00000000000009,20.00000000000009,-50.00000000000022,-0.0,-0.0,-10.000000000000044,-10.000000000000044,-10.000000000000044,-0.0
-0.0,-500.0000000000022,-50.00000000000022,20.00000000000009,20.00000000000009,-50.00000000000022,-0.0,-0.0,-10.000000000000044,-20.00000000000009,-10.000000000000044,-0.0
-0.0,-50.00000000000022,-40.00000000000018,10.000000000000044,20.00000000000009,-40.00000000000018,-0.0,-10.000000000000044,-10.000000000000044,-20.00000000000009,-10.000000000000044,-0.0
-0.0,-40.00000000000018,-50.00000000000022,10.000000000000044,20.00000000000009,-40.00000000000018,-0.0,-0.0,-10.000000000000044,-20.00000000000009,-10.000000000000044,-0.0
-0.0,-40.00000000000018,-50.00000000000022,10.000000000000044,30.000000000000135,-50.00000000000022,-0.0,-0.0,-10.000000000000044,-20.00000000000009,-20.00000000000009,-0.0
10.000000000000044,-40.00000000000018,-60.00000000000027,10.000000000000044,30.000000000000135,-50.00000000000022,-0.0,-10.000000000000044,-10.000000000000044,-20.00000000000009,-20.00000000000009,-0.0
10.000000000000044,-40.00000000000018,-60.00000000000027,10.000000000000044,30.000000000000135,-50.00000000000022,-0.0,-10.000000000000044,-10.000000000000044,-20.00000000000009,-20.00000000000009,-0.0
10.000000000000044,-40.00000000000018,-60.00000000000027,-0.0,30.000000000000135,-50.00000000000022,-0.0,-0.0,-10.000000000000044,-20.00000000000009,-20.00000000000009,-0.0
20.00000000000009,-40.00000000000018,-60.00000000000027,-0.0,40.00000000000018,-50.00000000000022,-0.0,-0.0,-10.000000000000044,-30.000000000000135,-20.00000000000009,-0.0
20.00000000000009,-40.00000000000018,-70.00000000000031,-0.0,40.00000000000018,-50.00000000000022,-0.0,-0.0,-20.00000000000009,-30.000000000000135,-20.00000000000009,-0.0
30.000000000000135,-40.00000000000018,-70.00000000000031,-0.0,50.00000000000022,-50.00000000000022,-0.0,-0.0,-20.00000000000009,-30.000000000000135,-20.00000000000009,-0.0
40.00000000000018,-30.000000000000135,-70.00000000000031,-0.0,50.00000000000022,-50.00000000000022,-0.0,-10.000000000000044,-20.00000000000009,-30.000000000000135,-20.00000000000009,-0.0
40.00000000000018,-30.000000000000135,-80.00000000000036,-0.0,60.00000000000027,-50.00000000000022,-0.0,-10.000000000000044,-20.00000000000009,-30.000000000000135,-20.00000000000009,-0.0
50.00000000000022,-20.00000000000009,-80.00000000000036,-10.000000000000044,60.00000000000027,-50.00000000000022,-0.0,-10.000000000000044,-20.00000000000009,-30.000000000000135,-20.00000000000009,-0.0
60.00000000000027,-20.00000000000009,-80.00000000000036,-20.00000000000009,70.00000000000031,-50.00000000000022,-0.0,-10.000000000000044,-20.00000000000009,-30.000000000000135,-20.00000000000009,-0.0
70.00000000000031,-20.00000000000009,-80.00000000000036,-30.000000000000135,80.00000000000036,-40.00000000000018,-0.0,-10.000000000000044,-20.00000000000009,-30.000000000000135,-20.00000000000009,-0.0
80.00000000000036,-10.000000000000044,-90.0000000000004,-40.00000000000018,80.00000000000036,-40.00000000000018,-0.0,-10.000000000000044,-20.00000000000009,-30.000000000000135,-20.00000000000009,-0.0
90.0000000000004,-0.0,-100.00000000000044,-50.00000000000022,90.0000000000004,-50.00000000000022,-0.0,-10.000000000000044,-30.000000000000135,-30.000000000000135,-20.00000000000009,-0.0
100.00000000000044,-0.0,-100.00000000000044,-60.00000000000027,100.00000000000044,-40.00000000000018,-0.0,-10.000000000000044,-20.00000000000009,-30.000000000000135,-20.00000000000009,-0.0
110.00000000000048,-0.0,-100.00000000000044,-70.00000000000031,110.00000000000048,-40.00000000000018,-0.0,-10.000000000000044,-20.00000000000009,-30.000000000000135,-20.00000000000009,-0.0
130.00000000000057,10.000000000000044,-110.00000000000048,-80.00000000000036,120.00000000000054,-40.00000000000018,-0.0,-10.000000000000044,-20.00000000000009,-30.000000000000135,-20.00000000000009,-0.0
150.00000000000065,20.00000000000009,-120.00000000000054,-100.00000000000044,130.00000000000057,-40.00000000000018,-0.0,-10.000000000000044,-20.00000000000009,-30.000000000000135,-20.00000000000009,-0.0
170.00000000000077,30.000000000000135,-120.00000000000054,-110.00000000000048,140.00000000000063,-40.00000000000018,-0.0,-0.0,-20.00000000000009,-30.000000000000135,-10.000000000000044,-0.0
180.0000000000008,40.00000000000018,-140.00000000000063,-120.00000000000054,160.0000000000007,-40.00000000000018,-0.0,-0.0,-10.000000000000044,-20.00000000000009,-10.000000000000044,-0.0
200.00000000000088,50.00000000000022,-140.00000000000063,-140.00000000000063,170.00000000000077,-40.00000000000018,10.000000000000044,-0.0,-0.0,-20.00000000000009,-0.0,10.000000000000044
220.00000000000097,60.00000000000027,-150.00000000000065,-150.00000000000065,180.0000000000008,-30.000000000000135,20.00000000000009,-0.0,-0.0,-10.000000000000044,-0.0,20.00000000000009
240.00000000000108,70.00000000000031,-160.0000000000007,-170.00000000000077,200.00000000000088,-30.000000000000135,30.000000000000135,-0.0,-0.0,-0.0,-0.0,20.00000000000009
260.00000000000114,80.00000000000036,-160.0000000000007,-180.0000000000008,210.00000000000094,-30.000000000000135,30.000000000000135,10.000000000000044,-0.0,-0.0,-0.0,30.000000000000135
280.00000000000125,90.0000000000004,-170.00000000000077,-200.00000000000088,220.00000000000097,-20.00000000000009,40.00000000000018,20.00000000000009,-0.0,-0.0,-0.0,30.000000000000135
300.0000000000013,110.00000000000048,-170.00000000000077,-220.00000000000097,230.00000000000102,-20.00000000000009,50.00000000000022,20.00000000000009,-0.0,-0.0,-0.0,30.000000000000135
310.00000000000136,120.00000000000054,-170.00000000000077,-230.00000000000102,240.00000000000108,-10.000000000000044,40.00000000000018,20.00000000000009,-0.0,-0.0,10.000000000000044,40.00000000000018
330.0000000000015,140.00000000000063,-180.0000000000008,-250.0000000000011,250.0000000000011,-10.000000000000044,30.000000000000135,10.000000000000044,-0.0,-0.0,10.000000000000044,40.00000000000018
340.00000000000153,150.00000000000065,-180.0000000000008,-260.00000000000114,260.00000000000114,-0.0,20.00000000000009,10.000000000000044,-0.0,-0.0,20.00000000000009,50.00000000000022
350.00000000000153,160.0000000000007,-170.00000000000077,-270.0000000000012,260.00000000000114,-0.0,10.000000000000044,-0.0,-0.0,-0.0,20.00000000000009,50.00000000000022
350.00000000000153,180.0000000000008,-160.0000000000007,-280.00000000000125,260.00000000000114,10.000000000000044,-0.0,-0.0,-0.0,-0.0,30.000000000000135,60.00000000000027
360.0000000000016,190.00000000000085,-160.0000000000007,-280.00000000000125,260.00000000000114,10.000000000000044,-0.0,-0.0,-0.0,-0.0,30.000000000000135,70.00000000000031
360.0000000000016,200.00000000000088,-150.00000000000065,-280.00000000000125,250.0000000000011,20.00000000000009,-10.000000000000044,-10.000000000000044,-0.0,-0.0,40.00000000000018,70.00000000000031
350.00000000000153,210.00000000000094,-130.00000000000057,-290.0000000000013,240.00000000000108,30.000000000000135,-10.000000000000044,-10.000000000000044,-0.0,-0.0,40.00000000000018,70.00000000000031
340.00000000000153,210.00000000000094,-120.00000000000054,-280.00000000000125,230.00000000000102,50.00000000000022,-20.00000000000009,-20.00000000000009,-0.0,-0.0,40.00000000000018,70.00000000000031
320.0000000000014,220.00000000000097,-110.00000000000048,-280.00000000000125,210.00000000000094,50.00000000000022,-20.00000000000009,-20.00000000000009,-10.000000000000044,-0.0,40.00000000000018,70.00000000000031
310.00000000000136,220.00000000000097,-90.0000000000004,-270.0000000000012,200.00000000000088,60.00000000000027,-30.000000000000135,-30.000000000000135,-20.00000000000009,-10.000000000000044,30.000000000000135,70.00000000000031
290.0000000000013,220.00000000000097,-80.00000000000036,-250.0000000000011,180.0000000000008,60.00000000000027,-30.000000000000135,-40.00000000000018,-30.000000000000135,-20.00000000000009,20.00000000000009,60.00000000000027
260.00000000000114,210.00000000000094,-60.00000000000027,-230.00000000000102,150.00000000000065,70.00000000000031,-30.000000000000135,-40.00000000000018,-30.000000000000135,-30.000000000000135,10.000000000000044,50.00000000000022
230.00000000000102,200.00000000000088,-40.00000000000018,-210.00000000000094,130.00000000000057,70.00000000000031,-30.000000000000135,-50.00000000000022,-40.00000000000018,-40.00000000000018,-0.0,40.00000000000018
190.00000000000085,180.0000000000008,-20.00000000000009,-190.00000000000085,100.00000000000044,70.00000000000031,-30.000000000000135,-50.00000000000022,-50.00000000000022,-50.00000000000022,-0.0,30.000000000000135
160.0000000000007,170.00000000000077,-10.000000000000044,-160.0000000000007,80.00000000000036,70.00000000000031,-20.00000000000009,-60.00000000000027,-60.00000000000027,-60.00000000000027,-0.0,20.00000000000009
130.00000000000057,150.00000000000065,-0.0,-140.00000000000063,60.00000000000027,70.00000000000031,-20.00000000000009,-60.00000000000027,-70.00000000000031,-70.00000000000031,-10.000000000000044,10.000000000000044
100.00000000000044,130.00000000000057,-0.0,-120.00000000000054,40.00000000000018,60.00000000000027,-20.00000000000009,-70.00000000000031,-80.00000000000036,-80.00000000000036,-20.00000000000009,-0.0
80.00000000000036,110.00000000000048,10.000000000000044,-100.00000000000044,20.00000000000009,60.00000000000027,-20.00000000000009,-70.00000000000031,-80.00000000000036,-90.0000000000004,-30.000000000000135,-0.0
50.00000000000022,100.00000000000044,20.00000000000009,-80.00000000000036,10.000000000000044,50.00000000000022,-20.00000000000009,-80.00000000000036,-90.0000000000004,-90.0000000000004,-30.000000000000135,-0.0
40.00000000000018,80.00000000000036,30.000000000000135,-60.00000000000027,-0.0,50.00000000000022,-20.00000000000009,-80.00000000000036,-90.0000000000004,-90.0000000000004,-30.000000000000135,-0.0
30.000000000000135,70.00000000000031,20.00000000000009,-50.00000000000022,-0.0,40.00000000000018,-20.00000000000009,-80.00000000000036,-100.00000000000044,-100.00000000000044,-40.00000000000018,-0.0
20.00000000000009,60.00000000000027,20.00000000000009,-40.00000000000018,-0.0,30.000000000000135,-20.00000000000009,-80.00000000000036,-100.00000000000044,-100.00000000000044,-40.00000000000018,-0.0
10.000000000000044,50.00000000000022,20.00000000000009,-30.000000000000135,-0.0,30.000000000000135,-20.00000000000009,-80.00000000000036,-100.00000000000044,-100.00000000000044,-40.00000000000018,-0.0
-0.0,40.00000000000018,20.00000000000009,-20.00000000000009,-0.0,30.000000000000135,-20.00000000000009,-90.0000000000004,-110.00000000000048,-100.00000000000044,-40.00000000000018,-0.0
-0.0,30.000000000000135,20.00000000000009,-10.000000000000044,-0.0,20.00000000000009,-20.00000000000009,-90.0000000000004,-110.00000000000048,-100.00000000000044,-40.00000000000018,-10.000000000000044
-0.0,20.00000000000009,20.00000000000009,-10.000000000000044,-0.0,20.00000000000009,-20.00000000000009,-90.0000000000004,-110.00000000000048,-100.00000000000044,-40.00000000000018,-10.000000000000044
-0.0,20.00000000000009,10.000000000000044,-0.0,-0.0,10.000000000000044,-20.00000000000009,-90.0000000000004,-110.00000000000048,-100.00000000000044,-40.00000000000018,-10.000000000000044
-0.0,10.000000000000044,10.000000000000044,-0.0,-0.0,10.000000000000044,-20.00000000000009,-90.0000000000004,-110.00000000000048,-100.00000000000044,-40.00000000000018,-10.000000000000044
-0.0,10.000000000000044,10.000000000000044,-0.0,-0.0,-0.0,-20.00000000000009,-90.0000000000004,-110.00000000000048,-100.00000000000044,-40.00000000000018,-10.000000000000044
-0.0,-0.0,10.000000000000044,-0.0,-0.0,10.000000000000044,-10.000000000000044,-90.0000000000004,-110.00000000000048,-100.00000000000044,-40.00000000000018,-10.000000000000044
-0.0,10.000000000000044,10.000000000000044,-0.0,-0.0,10.000000000000044,-10.000000000000044,-80.00000000000036,-110.00000000000048,-100.00000000000044,-40.00000000000018,-10.000000000000044
-0.0,10.000000000000044,-0.0,-0.0,-0.0,-0.0,-10.000000000000044,-80.00000000000036,-110.00000000000048,-100.00000000000044,-50.00000000000022,-10.000000000000044
-0.0,-0.0,-0.0,-0.0,-0.0,-0.0,-10.000000000000044,-80.00000000000036,-100.00000000000044,-100.00000000000044,-50.00000000000022,-20.00000000000009
-0.0,-0.0,-0.0,-0.0,-0.0,-0.0,-0.0,-50.00000000000022,-70.00000000000031,-90.0000000000004,-50.00000000000022,-30.000000000000135
-0.0,-0.0,-0.0,-0.0,-0.0,-0.0,20.00000000000009,-10.000000000000044,-30.000000000000135,-60.00000000000027,-60.00000000000027,-50.00000000000022
-0.0,-0.0,-0.0,-0.0,-0.0,-0.0,50.00000000000022,40.00000000000018,30.000000000000135,-30.000000000000135,-60.00000000000027,-60.00000000000027
-0.0,-0.0,-0.0,-0.0,-0.0,-0.0,90.0000000000004,120.00000000000054,110.00000000000048,20.00000000000009,-60.00000000000027,-80.00000000000036
-0.0,-0.0,-0.0,-0.0,-0.0,-0.0,140.00000000000063,220.00000000000097,190.00000000000085,70.00000000000031,-50.00000000000022,-90.0000000000004
-0.0,-0.0,-0.0,-0.0,-0.0,-0.0,190.00000000000085,300.0000000000013,240.00000000000108,140.00000000000063,-20.00000000000009,-80.00000000000036
-0.0,-0.0,-0.0,-0.0,-0.0,-0.0,200.00000000000088,330.0000000000015,250.0000000000011,200.00000000000088,30.000000000000135,-40.00000000000018
-0.0,-0.0,-0.0,-0.0,-0.0,-0.0,170.00000000000077,290.0000000000013,210.00000000000094,250.0000000000011,110.00000000000048,20.00000000000009
-0.0,-0.0,-0.0,-0.0,-0.0,-0.0,100.00000000000044,160.0000000000007,120.00000000000054,300.0000000000013,210.00000000000094,130.00000000000057
-0.0,-0.0,-0.0,-0.0,-0.0,-0.0,-30.000000000000135,-60.00000000000027,-10.000000000000044,320.0000000000014,350.00000000000153,290.0000000000013
-0.0,-0.0,-0.0,-0.0,-0.0,-0.0,-230.00000000000102,-370.00000000000165,-170.00000000000077,330.0000000000015,520.0000000000023,500.0000000000022
-0.0,-0.0,-0.0,-0.0,-0.0,-0.0,-480.00000000000216,-720.0000000000032,-360.0000000000016,300.0000000000013,670.000000000003,700.0000000000031
-0.0,-0.0,-0.0,-0.0,-0.0,-0.0,-730.0000000000033,-1070.0000000000048,-550.0000000000024,220.00000000000097,780.0000000000034,880.0000000000039
10.000000000000044,-0.0,-10.000000000000044,-0.0,10.000000000000044,-0.0,-970.0000000000043,-1380.0000000000061,-730.0000000000033,110.00000000000048,840.0000000000038,1010.0000000000044
10.000000000000044,-0.0,-10.000000000000044,-0.0,10.000000000000044,-0.0,-1150.000000000005,-1620.0000000000073,-860.0000000000039,-30.000000000000135,810.0000000000036,1070.0000000000048
10.000000000000044,-0.0,-10.000000000000044,-0.0,10.000000000000044,-0.0,-1250.0000000000055,-1750.0000000000077,-960.0000000000043,-170.00000000000077,710.0000000000032,1020.0000000000045
20.00000000000009,-0.0,-10.000000000000044,-10.000000000000044,10.000000000000044,-0.0,-1280.0000000000057,-1780.000000000008,-1000.0000000000044,-290.0000000000013,570.0000000000025,930.0000000000041
10.000000000000044,-0.0,-10.000000000000044,-10.000000000000044,10.000000000000044,-0.0,-1230.0000000000055,-1710.0000000000075,-940.0000000000042,-360.0000000000016,420.0000000000019,800.0000000000035
20.00000000000009,-0.0,-10.000000000000044,-10.000000000000044,10.000000000000044,-0.0,-1130.000000000005,-1550.0000000000068,-840.0000000000038,-390.0000000000017,270.0000000000012,650.0000000000028
20.00000000000009,-0.0,-10.000000000000044,-10.000000000000044,10.000000000000044,-0.0,-970.0000000000043,-1310.000000000006,-710.0000000000032,-390.0000000000017,130.00000000000057,490.00000000000216
10.000000000000044,-0.0,-10.000000000000044,-10.000000000000044,10.000000000000044,-0.0,-790.0000000000035,-1050.0000000000048,-570.0000000000025,-360.0000000000016,20.00000000000009,340.00000000000153
10.000000000000044,-0.0,-10.000000000000044,-0.0,10.000000000000044,-0.0,-620.0000000000027,-800.0000000000035,-430.00000000000193,-310.00000000000136,-50.00000000000022,210.00000000000094
10.000000000000044,-0.0,-10.000000000000044,-0.0,10.000000000000044,-0.0,-440.00000000000193,-570.0000000000025,-300.0000000000013,-250.0000000000011,-100.00000000000044,110.00000000000048
10.000000000000044,-0.0,-10.000000000000044,-0.0,10.000000000000044,-0.0,-300.0000000000013,-380.0000000000017,-200.00000000000088,-180.0000000000008,-120.00000000000054,40.00000000000018
10.000000000000044,-0.0,-10.000000000000044,-0.0,10.000000000000044,-0.0,-190.00000000000085,-240.00000000000108,-110.00000000000048,-110.00000000000048,-100.00000000000044,10.000000000000044
10.000000000000044,-0.0,-10.000000000000044,-0.0,10.000000000000044,-0.0,-120.00000000000054,-130.00000000000057,-40.00000000000018,-50.00000000000022,-80.00000000000036,-0.0
10.000000000000044,-0.0,-10.000000000000044,-0.0,10.000000000000044,-0.0,-60.00000000000027,-50.00000000000022,-0.0,-20.00000000000009,-60.00000000000027,-0.0
10.000000000000044,-0.0,-10.000000000000044,-0.0,10.000000000000044,-0.0,-20.00000000000009,-0.0,20.00000000000009,-0.0,-40.00000000000018,-0.0
10.000000000000044,-0.0,-10.000000000000044,-0.0,10.000000000000044,-0.0,-0.0,20.00000000000009,30.000000000000135,-0.0,-30.000000000000135,-10.000000000000044
10.000000000000044,-0.0,-10.000000000000044,-0.0,10.000000000000044,-0.0,-0.0,40.00000000000018,40.00000000000018,-0.0,-30.000000000000135,-10.000000000000044
10.000000000000044,-0.0,-10.000000000000044,-0.0,10.000000000000044,-0.0,20.00000000000009,60.00000000000027,50.00000000000022,-0.0,-30.000000000000135,-10.000000000000044
10.000000000000044,-0.0,-10.000000000000044,-0.0,10.000000000000044,-0.0,30.000000000000135,70.00000000000031,60.00000000000027,10.000000000000044,-20.00000000000009,-20.00000000000009
10.000000000000044,-0.0,-10.000000000000044,-0.0,10.000000000000044,-0.0,30.000000000000135,80.00000000000036,70.00000000000031,20.00000000000009,-20.00000000000009,-20.00000000000009
10.000000000000044,-0.0,-10.000000000000044,-0.0,10.000000000000044,-0.0,40.00000000000018,90.0000000000004,80.00000000000036,30.000000000000135,-20.00000000000009,-20.00000000000009
10.000000000000044,-0.0,-10.000000000000044,-0.0,10.000000000000044,-0.0,40.00000000000018,100.00000000000044,90.0000000000004,30.000000000000135,-10.000000000000044,-20.00000000000009
10.000000000000044,-0.0,-0.0,-0.0,-0.0,-0.0,50.00000000000022,110.00000000000048,100.00000000000044,40.00000000000018,-10.000000000000044,-20.00000000000009
10.000000000000044,-0.0,-0.0,-0.0,-0.0,-0.0,50.00000000000022,120.00000000000054,100.00000000000044,40.00000000000018,-10.000000000000044,-20.00000000000009
-0.0,-0.0,-0.0,-0.0,-0.0,-0.0,50.00000000000022,130.00000000000057,110.00000000000048,50.00000000000022,-0.0,-20.00000000000009
-0.0,-0.0,-0.0,-0.0,-0.0,-0.0,50.00000000000022,130.00000000000057,120.00000000000054,60.00000000000027,-0.0,-10.000000000000044
-0.0,-0.0,-0.0,-0.0,-0.0,-0.0,50.00000000000022,140.00000000000063,130.00000000000057,70.00000000000031,-0.0,-10.000000000000044
-0.0,-0.0,-0.0,-0.0,-0.0,-0.0,50.00000000000022,150.00000000000065,140.00000000000063,80.00000000000036,-0.0,-10.000000000000044
-0.0,-0.0,-0.0,-0.0,-0.0,-0.0,60.00000000000027,160.0000000000007,150.00000000000065,80.00000000000036,10.000000000000044,-10.000000000000044
-0.0,-0.0,-0.0,-0.0,-0.0,-0.0,60.00000000000027,170.00000000000077,160.0000000000007,100.00000000000044,10.000000000000044,-10.000000000000044
-0.0,-0.0,-0.0,-0.0,-0.0,-0.0,60.00000000000027,180.0000000000008,170.00000000000077,100.00000000000044,20.00000000000009,-0.0
-0.0,-0.0,-0.0,-0.0,-0.0,-0.0,60.00000000000027,190.00000000000085,180.0000000000008,110.00000000000048,20.00000000000009,-0.0
-0.0,-0.0,-0.0,-0.0,-0.0,-0.0,60.00000000000027,200.00000000000088,190.00000000000085,120.00000000000054,30.000000000000135,-0.0
-0.0,-0.0,-0.0,-0.0,-0.0,-0.0,70.00000000000031,210.00000000000094,200.00000000000088,140.00000000000063,40.00000000000018,-0.0
-0.0,-0.0,-0.0,-0.0,-0.0,-0.0,70.00000000000031,220.00000000000097,210.00000000000094,150.00000000000065,50.00000000000022,-0.0
-0.0,-0.0,-0.0,-0.0,-0.0,-0.0,70.00000000000031,230.00000000000102,230.00000000000102,160.0000000000007,50.00000000000022,-0.0
-0.0,-0.0,-0.0,-0.0,-0.0,-0.0,70.00000000000031,240.00000000000108,240.00000000000108,170.00000000000077,60.00000000000027,-0.0
-0.0,-0.0,-0.0,-0.0,-0.0,-0.0,70.00000000000031,260.00000000000114,260.00000000000114,190.00000000000085,70.00000000000031,10.000000000000044
-0.0,-0.0,-0.0,-0.0,-0.0,-0.0,70.00000000000031,270.0000000000012,270.0000000000012,200.00000000000088,80.00000000000036,10.000000000000044
-0.0,-0.0,-0.0,-0.0,-0.0,-0.0,70.00000000000031,280.00000000000125,290.0000000000013,210.00000000000094,80.00000000000036,10.000000000000044
-0.0,-0.0,-0.0,-0.0,-0.0,-0.0,70.00000000000031,300.0000000000013,310.00000000000136,230.00000000000102,90.0000000000004,20.00000000000009
-0.0,-0.0,-0.0,-0.0,-0.0,-0.0,60.00000000000027,310.00000000000136,320.0000000000014,250.0000000000011,100.00000000000044,20.00000000000009
-0.0,-0.0,-0.0,-0.0,-0.0,-0.0,60.00000000000027,330.0000000000015,340.00000000000153,260.00000000000114,120.00000000000054,30.000000000000135
-0.0,-0.0,-0.0,-0.0,-0.0,-0.0,60.00000000000027,350.00000000000153,360.0000000000016,280.00000000000125,130.00000000000057,40.00000000000018
-0.0,-0.0,-0.0,-0.0,-0.0,-0.0,60.00000000000027,370.00000000000165,380.0000000000017,300.0000000000013,140.00000000000063,50.00000000000022
-0.0,-0.0,-0.0,-0.0,-0.0,-0.0,60.00000000000027,380.0000000000017,400.00000000000176,320.0000000000014,160.0000000000007,60.00000000000027
-0.0,-0.0,-0.0,-0.0,-0.0,-0.0,60.00000000000027,400.00000000000176,420.0000000000019,340.00000000000153,170.00000000000077,70.00000000000031
-0.0,-0.0,-0.0,-0.0,-0.0,-0.0,50.00000000000022,420.0000000000019,430.00000000000193,360.0000000000016,190.00000000000085,80.00000000000036
-0.0,-0.0,-0.0,-0.0,-0.0,-0.0,50.00000000000022,430.00000000000193,450.000000000002,370.00000000000165,200.00000000000088,90.0000000000004
-0.0,-0.0,-0.0,-0.0,-0.0,-0.0,40.00000000000018,440.00000000000193,460.00000000000205,390.0000000000017,220.00000000000097,100.00000000000044
-0.0,-0.0,-0.0,-0.0,-0.0,-0.0,40.00000000000018,450.000000000002,470.0000000000021,400.00000000000176,230.00000000000102,110.00000000000048
-0.0,-0.0,-0.0,-0.0,-0.0,-0.0,40.00000000000018,460.00000000000205,480.00000000000216,410.0000000000018,250.0000000000011,120.00000000000054
-0.0,-0.0,-0.0,-0.0,-0.0,-0.0,30.000000000000135,460.00000000000205,480.00000000000216,420.0000000000019,260.00000000000114,130.00000000000057
-0.0,-0.0,-0.0,-0.0,-0.0,-0.0,20.00000000000009,460.00000000000205,480.00000000000216,420.0000000000019,270.0000000000012,150.00000000000065
-0.0,-0.0,-0.0,-0.0,-0.0,-0.0,10.000000000000044,450.000000000002,480.00000000000216,430.00000000000193,280.00000000000125,160.0000000000007
-0.0,-0.0,-0.0,-0.0,-0.0,-0.0,10.000000000000044,440.00000000000193,470.0000000000021,420.0000000000019,290.0000000000013,170.00000000000077
-0.0,-0.0,-0.0,-0.0,-0.0,-0.0,-0.0,430.00000000000193,460.00000000000205,420.0000000000019,290.0000000000013,180.0000000000008
-0.0,-0.0,-0.0,-0.0,-0.0,-0.0,-0.0,410.0000000000018,440.00000000000193,400.00000000000176,290.0000000000013,180.0000000000008
-10.000000000000044,-0.0,-0.0,-0.0,-0.0,-0.0,-0.0,390.0000000000017,420.0000000000019,390.0000000000017,290.0000000000013,190.00000000000085
-10.000000000000044,-0.0,-0.0,-0.0,-0.0,-0.0,-0.0,370.00000000000165,400.00000000000176,370.00000000000165,280.00000000000125,190.00000000000085
-0.0,-0.0,-0.0,-0.0,-0.0,-0.0,-0.0,350.00000000000153,370.00000000000165,340.00000000000153,270.0000000000012,190.00000000000085
-0.0,-0.0,-0.0,-0.0,-0.0,-0.0,-10.000000000000044,320.0000000000014,340.00000000000153,320.0000000000014,260.00000000000114,180.0000000000008
-10.000000000000044,-0.0,-0.0,-0.0,-10.000000000000044,-0.0,-10.000000000000044,300.0000000000013,310.00000000000136,290.0000000000013,250.0000000000011,180.0000000000008
-0.0,-0.0,-0.0,-0.0,-0.0,-0.0,-0.0,270.0000000000012,270.0000000000012,260.00000000000114,230.00000000000102,170.00000000000077
-0.0,-0.0,-0.0,-0.0,-0.0,-0.0,-0.0,240.00000000000108,240.00000000000108,230.00000000000102,210.00000000000094,160.0000000000007
-0.0,-0.0,-0.0,-0.0,-0.0,-0.0,-0.0,210.00000000000094,210.00000000000094,200.00000000000088,190.00000000000085,150.00000000000065
-0.0,-0.0,-0.0,-0.0,-0.0,-0.0,-0.0,180.0000000000008,180.0000000000008,170.00000000000077,170.00000000000077,130.00000000000057
-0.0,-0.0,-0.0,-0.0,-0.0,-0.0,-0.0,160.0000000000007,150.00000000000065,140.00000000000063,150.00000000000065,120.00000000000054
-0.0,-0.0,-0.0,-0.0,-0.0,-0.0,-0.0,130.00000000000057,130.00000000000057,120.00000000000054,130.00000000000057,100.00000000000044
-10.000000000000044,-0.0,-0.0,-0.0,-0.0,-0.0,-0.0,110.00000000000048,100.00000000000044,90.0000000000004,110.00000000000048,90.0000000000004
-10.000000000000044,-0.0,-0.0,-0.0,-10.000000000000044,-0.0,-0.0,90.0000000000004,80.00000000000036,70.00000000000031,100.00000000000044,80.00000000000036
-10.000000000000044,-0.0,-0.0,-0.0,-10.000000000000044,-0.0,-0.0,70.00000000000031,60.00000000000027,50.00000000000022,80.00000000000036,60.00000000000027
-10.000000000000044,-0.0,-0.0,-0.0,-10.000000000000044,-0.0,-0.0,50.00000000000022,50.00000000000022,40.00000000000018,60.00000000000027,50.00000000000022
-10.000000000000044,-0.0,10.000000000000044,-0.0,-10.000000000000044,-0.0,-0.0,40.00000000000018,30.000000000000135,30.000000000000135,50.00000000000022,40.00000000000018
-0.0,-0.0,-0.0,-0.0,-0.0,-0.0,-0.0,30.000000000000135,20.00000000000009,10.000000000000044,30.000000000000135,30.000000000000135
-0.0,-0.0,10.000000000000044,-0.0,-10.000000000000044,-0.0,-0.0,20.00000000000009,10.000000000000044,10.000000000000044,20.00000000000009,20.00000000000009
-0.0,-0.0,10.000000000000044,-0.0,-10.000000000000044,10.000000000000044,-0.0,10.000000000000044,10.000000000000044,-0.0,20.00000000000009,10.000000000000044
-0.0,10.000000000000044,20.00000000000009,-10.000000000000044,-10.000000000000044,20.00000000000009,-0.0,10.000000000000044,-0.0,-0.0,10.000000000000044,10.000000000000044
-0.0,20.00000000000009,20.00000000000009,-20.00000000000009,-10.000000000000044,30.000000000000135,-0.0,-0.0,-0.0,-0.0,10.000000000000044,10.000000000000044
-0.0,30.000000000000135,30.000000000000135,-30.000000000000135,-10.000000000000044,40.00000000000018,-0.0,-0.0,-0.0,-0.0,-0.0,-0.0
10.000000000000044,40.00000000000018,50.00000000000022,-40.00000000000018,-10.000000000000044,50.00000000000022,-0.0,-0.0,-0.0,-0.0,-0.0,-0.0
10.000000000000044,60.00000000000027,50.00000000000022,-40.00000000000018,-20.00000000000009,60.00000000000027,-0.0,-0.0,-0.0,-0.0,-0.0,-0.0
10.000000000000044,70.00000000000031,60.00000000000027,-50.00000000000022,-20.00000000000009,70.00000000000031,-0.0,-0.0,-0.0,-0.0,-0.0,-0.0
20.00000000000009,80.00000000000036,70.00000000000031,-60.00000000000027,-20.00000000000009,80.00000000000036,-0.0,-0.0,-0.0,-0.0,-0.0,-0.0
20.00000000000009,90.0000000000004,80.00000000000036,-60.00000000000027,-20.00000000000009,90.0000000000004,-0.0,-0.0,-0.0,-0.0,-0.0,-0.0
20.00000000000009,100.00000000000044,80.00000000000036,-70.00000000000031,-20.00000000000009,90.0000000000004,-0.0,-0.0,-0.0,-0.0,-0.0,-0.0
30.000000000000135,110.00000000000048,80.00000000000036,-80.00000000000036,-20.00000000000009,100.00000000000044,-0.0,-0.0,-0.0,-0.0,-0.0,-0.0
40.00000000000018,110.00000000000048,80.00000000000036,-90.0000000000004,-10.000000000000044,100.00000000000044,-0.0,-0.0,-0.0,-0.0,-0.0,-0.0
50.00000000000022,120.00000000000054,80.00000000000036,-100.00000000000044,-10.000000000000044,100.00000000000044,-0.0,-0.0,-0.0,-0.0,-0.0,-0.0
60.00000000000027,130.00000000000057,80.00000000000036,-100.00000000000044,-0.0,110.00000000000048,-0.0,-0.0,-0.0,-0.0,-0.0,-0.0
60.00000000000027,140.00000000000063,80.00000000000036,-100.00000000000044,-0.0,110.00000000000048,-0.0,-0.0,-0.0,-0.0,-0.0,-0.0
70.00000000000031,150.00000000000065,80.00000000000036,-110.00000000000048,-0.0,110.00000000000048,-0.0,-0.0,-0.0,-0.0,-0.0,-0.0
70.00000000000031,150.00000000000065,80.00000000000036,-110.00000000000048,-0.0,110.00000000000048,-0.0,-0.0,-0.0,-0.0,-0.0,-0.0
70.00000000000031,150.00000000000065,70.00000000000031,-100.00000000000044,-0.0,100.00000000000044,-0.0,-0.0,-0.0,-0.0,-0.0,-0.0
60.00000000000027,140.00000000000063,60.00000000000027,-100.00000000000044,-0.0,100.00000000000044,-0.0,-0.0,-0.0,-0.0,-0.0,-0.0
60.00000000000027,130.00000000000057,50.00000000000022,-90.0000000000004,-0.0,90.0000000000004,-0.0,-0.0,-0.0,-0.0,-0.0,-0.0
50.00000000000022,120.00000000000054,40.00000000000018,-80.00000000000036,-0.0,70.00000000000031,-0.0,-0.0,-0.0,-0.0,-0.0,-0.0
30.000000000000135,100.00000000000044,40.00000000000018,-60.00000000000027,-0.0,60.00000000000027,-0.0,-0.0,-0.0,-0.0,-0.0,-0.0
20.00000000000009,80.00000000000036,30.000000000000135,-50.00000000000022,-0.0,40.00000000000018,-0.0,-0.0,-0.0,-0.0,-0.0,-0.0
10.000000000000044,60.00000000000027,20.00000000000009,-30.000000000000135,-0.0,30.000000000000135,-0.0,-0.0,-0.0,-0.0,-0.0,-0.0
-0.0,40.00000000000018,20.00000000000009,-20.00000000000009,-0.0,20.00000000000009,-0.0,-0.0,-0.0,-0.0,-0.0,-0.0
-0.0,20.00000000000009,10.000000000000044,-0.0,-10.000000000000044,10.000000000000044,-0.0,-0.0,-0.0,-0.0,-0.0,-0.0
-10.000000000000044,10.000000000000044,10.000000000000044,-0.0,-10.000000000000044,-0.0,-0.0,-0.0,10.000000000000044,-0.0,-0.0,-0.0
-20.00000000000009,-0.0,10.000000000000044,-0.0,-10.000000000000044,-0.0,-0.0,-0.0,10.000000000000044,-0.0,-0.0,-0.0
-20.00000000000009,-0.0,10.000000000000044,10.000000000000044,-20.00000000000009,-0.0,-0.0,-0.0,10.000000000000044,-0.0,-0.0,-0.0
-30.000000000000135,-0.0,10.000000000000044,20.00000000000009,-20.00000000000009,-0.0,-0.0,-0.0,10.000000000000044,-0.0,-0.0,-0.0
-30.000000000000135,-10.000000000000044,10.000000000000044,20.00000000000009,-20.00000000000009,-0.0,-0.0,10.000000000000044,10.000000000000044,-0.0,-0.0,-0.0
-30.000000000000135,-10.000000000000044,20.00000000000009,20.00000000000009,-20.00000000000009,-0.0,-0.0,10.000000000000044,10.000000000000044,-0.0,-0.0,-0.0
-40.00000000000018,-10.000000000000044,20.00000000000009,20.00000000000009,-30.000000000000135,-0.0,-0.0,10.000000000000044,10.000000000000044,-0.0,-0.0,-0.0
-40.00000000000018,-10.000000000000044,10.000000000000044,30.000000000000135,-30.000000000000135,-0.0,-0.0,10.000000000000044,10.000000000000044,-0.0,-0.0,-0.0
-40.00000000000018,-20.00000000000009,10.000000000000044,30.000000000000135,-20.00000000000009,-0.0,-0.0,10.000000000000044,10.000000000000044,-0.0,-0.0,-0.0
-40.00000000000018,-20.00000000000009,10.000000000000044,30.000000000000135,-30.000000000000135,-0.0,-0.0,10.000000000000044,10.000000000000044,-0.0,-0.0,-0.0
-40.00000000000018,-20.00000000000009,20.00000000000009,30.000000000000135,-30.000000000000135,-0.0,-0.0,10.000000000000044,10.000000000000044,-0.0,-0.0,-0.0
-40.00000000000018,-20.00000000000009,10.000000000000044,30.000000000000135,-30.000000000000135,-0.0,-0.0,10.000000000000044,10.000000000000044,-0.0,-0.0,-0.0
-40.00000000000018,-20.00000000000009,10.000000000000044,30.000000000000135,-30.000000000000135,-0.0,-0.0,10.000000000000044,10.000000000000044,-0.0,-0.0,-0.0
-40.00000000000018,-20.00000000000009,20.00000000000009,30.000000000000135,-30.000000000000135,-0.0,-0.0,10.000000000000044,10.000000000000044,-0.0,-0.0,-0.0
-50.00000000000022,-20.00000000000009,20.00000000000009,30.000000000000135,-30.000000000000135,-0.0,-0.0,-0.0,-0.0,-0.0,-0.0,-0.0
-60.00000000000027,-20.00000000000009,20.00000000000009,40.00000000000018,-40.00000000000018,-0.0,-0.0,-0.0,-0.0,-0.0,-0.0,-0.0
-60.00000000000027,-30.000000000000135,20.00000000000009,50.00000000000022,-40.00000000000018,-0.0,-0.0,-0.0,-0.0,-0.0,-0.0,-0.0
-80.00000000000036,-40.00000000000018,10.000000000000044,60.00000000000027,-40.00000000000018,-20.00000000000009,-0.0,-0.0,-0.0,-0.0,-0.0,-0.0
-90.0000000000004,-60.00000000000027,-0.0,70.00000000000031,-50.00000000000022,-30.000000000000135,-0.0,-0.0,-0.0,-0.0,-0.0,-0.0
-100.00000000000044,-80.00000000000036,-0.0,90.0000000000004,-50.00000000000022,-50.00000000000022,-0.0,-0.0,-0.0,-0.0,-0.0,-0.0
-100.00000000000044,-100.00000000000044,-0.0,100.00000000000044,-50.00000000000022,-60.00000000000027,-0.0,-0.0,-0.0,-0.0,-0.0,-0.0
-90.0000000000004,-110.00000000000048,-10.000000000000044,90.0000000000004,-40.00000000000018,-60.00000000000027,-0.0,-0.0,-0.0,-0.0,-0.0,-0.0
-50.00000000000022,-100.00000000000044,-10.000000000000044,60.00000000000027,-20.00000000000009,-40.00000000000018,-0.0,-0.0,-0.0,-0.0,-0.0,-0.0
-0.0,-60.00000000000027,-0.0,-0.0,-0.0,-0.0,-0.0,-0.0,-0.0,-0.0,-0.0,-0.0
100.00000000000044,-0.0,-0.0,-110.00000000000048,40.00000000000018,50.00000000000022,-0.0,-0.0,-0.0,-0.0,-0.0,-0.0
250.0000000000011,110.00000000000048,30.000000000000135,-270.0000000000012,100.00000000000044,150.00000000000065,-0.0,-0.0,-0.0,-10.000000000000044,-0.0,-0.0
430.00000000000193,280.00000000000125,60.00000000000027,-460.00000000000205,180.0000000000008,280.00000000000125,-0.0,-0.0,-0.0,-10.000000000000044,-0.0,-0.0
630.0000000000028,490.00000000000216,80.00000000000036,-670.000000000003,270.0000000000012,400.00000000000176,-0.0,-0.0,-0.0,-10.000000000000044,-0.0,-0.0
800.0000000000035,710.0000000000032,90.0000000000004,-860.0000000000039,350.00000000000153,500.0000000000022,-0.0,-0.0,-0.0,-10.000000000000044,-0.0,-0.0
940.0000000000042,900.000000000004,100.00000000000044,-990.0000000000044,410.0000000000018,570.0000000000025,-0.0,-0.0,-10.000000000000044,-10.000000000000044,-0.0,-0.0
1010.0000000000044,1040.0000000000045,80.00000000000036,-1060.0000000000048,460.00000000000205,590.0000000000026,-0.0,-0.0,-10.000000000000044,-10.000000000000044,-0.0,-0.0
1000.0000000000044,1100.0000000000048,40.00000000000018,-1030.0000000000045,480.00000000000216,550.0000000000024,-0.0,-0.0,-10.000000000000044,-10.000000000000044,-0.0,-0.0
940.0000000000042,1050.0000000000048,10.000000000000044,-950.0000000000042,450.000000000002,490.00000000000216,-0.0,-0.0,-10.000000000000044,-20.00000000000009,-0.0,-0.0
830.0000000000036,960.0000000000043,-0.0,-840.0000000000038,410.0000000000018,420.0000000000019,-0.0,-0.0,-10.000000000000044,-20.00000000000009,-0.0,-0.0
710.0000000000032,840.0000000000038,-30.000000000000135,-700.0000000000031,360.0000000000016,320.0000000000014,-0.0,-0.0,-10.000000000000044,-20.00000000000009,-0.0,-0.0
580.0000000000026,680.0000000000031,-70.00000000000031,-550.0000000000024,320.0000000000014,210.00000000000094,-0.0,-10.000000000000044,-10.000000000000044,-20.00000000000009,-0.0,-0.0
440.00000000000193,510.0000000000023,-80.00000000000036,-400.00000000000176,260.00000000000114,130.00000000000057,-0.0,-10.000000000000044,-10.000000000000044,-10.000000000000044,-0.0,-0.0
320.0000000000014,360.0000000000016,-80.00000000000036,-280.00000000000125,190.00000000000085,70.00000000000031,-0.0,-0.0,-10.000000000000044,-20.00000000000009,-0.0,-0.0
210.00000000000094,230.00000000000102,-90.0000000000004,-170.00000000000077,140.00000000000063,10.000000000000044,-0.0,-0.0,-10.000000000000044,-20.00000000000009,-0.0,-0.0
130.00000000000057,120.00000000000054,-90.0000000000004,-90.0000000000004,100.00000000000044,-20.00000000000009,-0.0,-0.0,-10.000000000000044,-10.000000000000044,-0.0,-0.0
80.00000000000036,40.00000000000018,-60.00000000000027,-50.00000000000022,70.00000000000031,-20.00000000000009,-0.0,-0.0,-10.000000000000044,-10.000000000000044,-0.0,-0.0
50.00000000000022,10.000000000000044,-40.00000000000018,-30.000000000000135,40.00000000000018,-10.000000000000044,-0.0,-0.0,-10.000000000000044,-20.00000000000009,-0.0,-0.0
30.000000000000135,-0.0,-40.00000000000018,-10.000000000000044,40.00000000000018,-20.00000000000009,-0.0,-0.0,-10.000000000000044,-20.00000000000009,-0.0,-0.0
20.00000000000009,-10.000000000000044,-40.00000000000018,-0.0,30.000000000000135,-30.000000000000135,-0.0,-0.0,-10.000000000000044,-20.00000000000009,-0.0,-0.0
-0.0,-10.000000000000044,-30.000000000000135,-0.0,10.000000000000044,-20.00000000000009,-0.0,-0.0,-10.000000000000044,-20.00000000000009,-0.0,-0.0
-0.0,-20.00000000000009,-30.000000000000135,-0.0,10.000000000000044,-20.00000000000009,-0.0,-0.0,-10.000000000000044,-20.00000000000009,-0.0,-0.0
-0.0,-20.00000000000009,-30.000000000000135,10.000000000000044,10.000000000000044,-30.000000000000135,-0.0,-0.0,-10.000000000000044,-20.00000000000009,-0.0,-0.0
-0.0,-30.000000000000135,-30.000000000000135,10.000000000000044,10.000000000000044,-30.000000000000135,-0.0,-10.000000000000044,-10.000000000000044,-20.00000000000009,-0.0,-0.0
-0.0,-30.000000000000135,-30.000000000000135,10.000000000000044,10.000000000000044,-30.000000000000135,-0.0,-0.0,-10.000000000000044,-20.00000000000009,-0.0,-0.0
-0.0,-30.000000000000135,-30.000000000000135,10.000000000000044,10.000000000000044,-30.000000000000135,-0.0,-0.0,-10.000000000000044,-20.00000000000009,-0.0,-0.0
-0.0,-30.000000000000135,-30.000000000000135,10.000000000000044,10.000000000000044,-30.000000000000135,-0.0,-0.0,-10.000000000000044,-20.00000000000009,-0.0,-0.0
-0.0,-30.000000000000135,-30.000000000000135,10.000000000000044,10.000000000000044,-30.000000000000135,-0.0,-0.0,-0.0,-10.000000000000044,-0.0,-0.0
-0.0,-30.000000000000135,-30.000000000000135,10.000000000000044,10.000000000000044,-30.000000000000135,-0.0,-0.0,-0.0,-10.000000000000044,-0.0,-0.0
-0.0,-30.000000000000135,-30.000000000000135,10.000000000000044,10.000000000000044,-30.000000000000135,10.000000000000044,-0.0,-0.0,-0.0,-0.0,-0.0
-0.0,-30.000000000000135,-30.000000000000135,-0.0,10.000000000000044,-30.000000000000135,20.00000000000009,10.000000000000044,-0.0,-0.0,-0.0,-0.0
10.000000000000044,-20.00000000000009,-40.00000000000018,-0.0,20.00000000000009,-30.000000000000135,30.000000000000135,10.000000000000044,10.000000000000044,-0.0,10.000000000000044,10.000000000000044
10.000000000000044,-20.00000000000009,-40.00000000000018,-0.0,20.00000000000009,-30.000000000000135,30.000000000000135,20.00000000000009,10.000000000000044,-0.0,10.000000000000044,10.000000000000044
10.000000000000044,-20.00000000000009,-40.00000000000018,-0.0,20.00000000000009,-30.000000000000135,40.00000000000018,30.000000000000135,20.00000000000009,-0.0,20.00000000000009,20.00000000000009
10.000000000000044,-20.00000000000009,-30.000000000000135,-0.0,20.00000000000009,-20.00000000000009,50.00000000000022,30.000000000000135,30.000000000000135,10.000000000000044,20.00000000000009,20.00000000000009
20.00000000000009,-20.00000000000009,-40.00000000000018,-0.0,30.000000000000135,-30.000000000000135,50.00000000000022,40.00000000000018,30.000000000000135,10.000000000000044,30.000000000000135,30.000000000000135
20.00000000000009,-20.00000000000009,-40.00000000000018,-0.0,30.000000000000135,-30.000000000000135,40.00000000000018,30.000000000000135,30.000000000000135,20.00000000000009,30.000000000000135,30.000000000000135
30.000000000000135,-20.00000000000009,-40.00000000000018,-10.000000000000044,30.000000000000135,-20.00000000000009,30.000000000000135,30.000000000000135,30.000000000000135,20.00000000000009,40.00000000000018,40.00000000000018
30.000000000000135,-10.000000000000044,-40.00000000000018,-10.000000000000044,40.00000000000018,-20.00000000000009,20.00000000000009,20.00000000000009,30.000000000000135,20.00000000000009,40.00000000000018,40.00000000000018
40.00000000000018,-0.0,-50.00000000000022,-20.00000000000009,40.00000000000018,-20.00000000000009,10.000000000000044,20.00000000000009,30.000000000000135,20.00000000000009,50.00000000000022,50.00000000000022
50.00000000000022,-0.0,-50.00000000000022,-30.000000000000135,50.00000000000022,-20.00000000000009,-0.0,10.000000000000044,30.000000000000135,30.000000000000135,50.00000000000022,50.00000000000022
60.00000000000027,-0.0,-60.00000000000027,-30.000000000000135,60.00000000000027,-20.00000000000009,-0.0,10.000000000000044,30.000000000000135,30.000000000000135,50.00000000000022,60.00000000000027
70.00000000000031,-0.0,-60.00000000000027,-40.00000000000018,60.00000000000027,-20.00000000000009,-10.000000000000044,-0.0,20.00000000000009,20.00000000000009,50.00000000000022,60.00000000000027
80.00000000000036,-0.0,-70.00000000000031,-50.00000000000022,70.00000000000031,-30.000000000000135,-10.000000000000044,-0.0,20.00000000000009,20.00000000000009,50.00000000000022,60.00000000000027
90.0000000000004,-0.0,-80.00000000000036,-60.00000000000027,80.00000000000036,-30.000000000000135,-20.00000000000009,-0.0,10.000000000000044,20.00000000000009,50.00000000000022,60.00000000000027
100.00000000000044,10.000000000000044,-90.0000000000004,-60.00000000000027,90.0000000000004,-30.000000000000135,-20.00000000000009,-0.0,10.000000000000044,10.000000000000044,50.00000000000022,50.00000000000022
110.00000000000048,20.00000000000009,-90.0000000000004,-70.00000000000031,100.00000000000044,-30.000000000000135,-20.00000000000009,-0.0,-0.0,-0.0,40.00000000000018,50.00000000000022
130.00000000000057,20.00000000000009,-100.00000000000044,-90.0000000000004,110.00000000000048,-30.000000000000135,-20.00000000000009,-0.0,-0.0,-0.0,30.000000000000135,40.00000000000018
140.00000000000063,30.000000000000135,-100.00000000000044,-100.00000000000044,120.00000000000054,-20.00000000000009,-20.00000000000009,-10.000000000000044,-0.0,-0.0,20.00000000000009,30.000000000000135
160.0000000000007,40.00000000000018,-110.00000000000048,-110.00000000000048,130.00000000000057,-20.00000000000009,-20.00000000000009,-10.000000000000044,-10.000000000000044,-10.000000000000044,10.000000000000044,20.00000000000009
170.00000000000077,50.00000000000022,-110.00000000000048,-120.00000000000054,140.00000000000063,-20.00000000000009,-10.000000000000044,-20.00000000000009,-20.00000000000009,-20.00000000000009,-0.0,10.000000000000044
190.00000000000085,60.00000000000027,-110.00000000000048,-140.00000000000063,150.00000000000065,-10.000000000000044,-10.000000000000044,-20.00000000000009,-30.000000000000135,-30.000000000000135,-0.0,-0.0
210.00000000000094,80.00000000000036,-120.00000000000054,-160.0000000000007,170.00000000000077,-10.000000000000044,-10.000000000000044,-30.000000000000135,-30.000000000000135,-30.000000000000135,-0.0,-0.0
230.00000000000102,90.0000000000004,-130.00000000000057,-180.0000000000008,180.0000000000008,-10.000000000000044,-10.000000000000044,-30.000000000000135,-40.00000000000018,-40.00000000000018,-10.000000000000044,-0.0
250.0000000000011,100.00000000000044,-130.00000000000057,-200.00000000000088,190.00000000000085,-0.0,-10.000000000000044,-30.000000000000135,-40.00000000000018,-40.00000000000018,-20.00000000000009,-10.000000000000044
270.0000000000012,120.00000000000054,-140.00000000000063,-210.00000000000094,200.00000000000088,-0.0,-10.000000000000044,-30.000000000000135,-50.00000000000022,-50.00000000000022,-20.00000000000009,-20.00000000000009
290.0000000000013,130.00000000000057,-140.00000000000063,-220.00000000000097,210.00000000000094,-0.0,-10.000000000000044,-40.00000000000018,-50.00000000000022,-50.00000000000022,-30.000000000000135,-20.00000000000009
310.00000000000136,150.00000000000065,-140.00000000000063,-240.00000000000108,220.00000000000097,-0.0,-10.000000000000044,-40.00000000000018,-50.00000000000022,-50.00000000000022,-30.000000000000135,-20.00000000000009
320.0000000000014,160.0000000000007,-150.00000000000065,-250.0000000000011,230.00000000000102,10.000000000000044,-10.000000000000044,-40.00000000000018,-50.00000000000022,-50.00000000000022,-30.000000000000135,-30.000000000000135
340.00000000000153,170.00000000000077,-150.00000000000065,-270.0000000000012,240.00000000000108,10.000000000000044,-10.000000000000044,-40.00000000000018,-50.00000000000022,-50.00000000000022,-30.000000000000135,-20.00000000000009
350.00000000000153,190.00000000000085,-140.00000000000063,-280.00000000000125,240.00000000000108,20.00000000000009,-10.000000000000044,-40.00000000000018,-60.00000000000027,-50.00000000000022,-30.000000000000135,-30.000000000000135
360.0000000000016,200.00000000000088,-140.00000000000063,-290.0000000000013,250.0000000000011,30.000000000000135,-10.000000000000044,-40.00000000000018,-50.00000000000022,-50.00000000000022,-40.00000000000018,-30.000000000000135
370.00000000000165,210.00000000000094,-140.00000000000063,-300.0000000000013,250.0000000000011,40.00000000000018,-10.000000000000044,-40.00000000000018,-50.00000000000022,-50.00000000000022,-40.00000000000018,-30.000000000000135
370.00000000000165,220.00000000000097,-130.00000000000057,-300.0000000000013,250.0000000000011,50.00000000000022,-10.000000000000044,-40.00000000000018,-60.00000000000027,-60.00000000000027,-40.00000000000018,-30.000000000000135
360.0000000000016,230.00000000000102,-120.00000000000054,-300.0000000000013,240.00000000000108,50.00000000000022,-10.000000000000044,-40.00000000000018,-60.00000000000027,-60.00000000000027,-40.00000000000018,-30.000000000000135
350.00000000000153,240.00000000000108,-110.00000000000048,-300.0000000000013,230.00000000000102,60.00000000000027,-10.000000000000044,-40.00000000000018,-60.00000000000027,-60.00000000000027,-40.00000000000018,-30.000000000000135
340.00000000000153,240.00000000000108,-100.00000000000044,-290.0000000000013,210.00000000000094,70.00000000000031,-10.000000000000044,-40.00000000000018,-60.00000000000027,-60.00000000000027,-40.00000000000018,-30.000000000000135
320.0000000000014,240.00000000000108,-90.0000000000004,-280.00000000000125,200.00000000000088,70.00000000000031,-10.000000000000044,-40.00000000000018,-60.00000000000027,-60.00000000000027,-40.00000000000018,-40.00000000000018
300.0000000000013,230.00000000000102,-70.00000000000031,-270.0000000000012,180.0000000000008,80.00000000000036,-10.000000000000044,-40.00000000000018,-40.00000000000018,-60.00000000000027,-40.00000000000018,-40.00000000000018
270.0000000000012,230.00000000000102,-60.00000000000027,-250.0000000000011,160.0000000000007,80.00000000000036,-0.0,-10.000000000000044,-20.00000000000009,-50.00000000000022,-50.00000000000022,-50.00000000000022
240.00000000000108,220.00000000000097,-40.00000000000018,-230.00000000000102,140.00000000000063,80.00000000000036,20.00000000000009,20.00000000000009,10.000000000000044,-30.000000000000135,-60.00000000000027,-60.00000000000027
210.00000000000094,200.00000000000088,-30.000000000000135,-200.00000000000088,120.00000000000054,70.00000000000031,50.00000000000022,80.00000000000036,60.00000000000027,-10.000000000000044,-60.00000000000027,-80.00000000000036
180.0000000000008,180.0000000000008,-20.00000000000009,-180.0000000000008,90.0000000000004,70.00000000000031,90.0000000000004,150.00000000000065,120.00000000000054,30.000000000000135,-60.00000000000027,-90.0000000000004
150.00000000000065,160.0000000000007,-0.0,-160.0000000000007,70.00000000000031,70.00000000000031,140.00000000000063,230.00000000000102,180.0000000000008,70.00000000000031,-40.00000000000018,-100.00000000000044
120.00000000000054,150.00000000000065,-0.0,-130.00000000000057,50.00000000000022,60.00000000000027,190.00000000000085,290.0000000000013,220.00000000000097,120.00000000000054,-20.00000000000009,-90.0000000000004
100.00000000000044,130.00000000000057,-0.0,-110.00000000000048,40.00000000000018,60.00000000000027,200.00000000000088,310.00000000000136,200.00000000000088,160.0000000000007,20.00000000000009,-60.00000000000027
80.00000000000036,110.00000000000048,10.000000000000044,-90.0000000000004,20.00000000000009,60.00000000000027,170.00000000000077,240.00000000000108,130.00000000000057,190.00000000000085,80.00000000000036,-0.0
60.00000000000027,100.00000000000044,20.00000000000009,-80.00000000000036,10.000000000000044,50.00000000000022,90.0000000000004,90.0000000000004,20.00000000000009,210.00000000000094,170.00000000000077,100.00000000000044
40.00000000000018,80.00000000000036,20.00000000000009,-60.00000000000027,10.000000000000044,40.00000000000018,-50.00000000000022,-160.0000000000007,-130.00000000000057,220.00000000000097,290.0000000000013,250.0000000000011
30.000000000000135,60.00000000000027,20.00000000000009,-40.00000000000018,-0.0,30.000000000000135,-260.00000000000114,-490.00000000000216,-300.0000000000013,220.00000000000097,430.00000000000193,430.00000000000193
20.00000000000009,50.00000000000022,20.00000000000009,-30.000000000000135,-0.0,30.000000000000135,-520.0000000000023,-840.0000000000038,-480.00000000000216,190.00000000000085,570.0000000000025,630.0000000000028
10.000000000000044,40.00000000000018,20.00000000000009,-20.00000000000009,-0.0,30.000000000000135,-790.0000000000035,-1190.0000000000052,-670.000000000003,120.00000000000054,680.0000000000031,800.0000000000035
10.000000000000044,30.000000000000135,10.000000000000044,-20.00000000000009,-0.0,20.00000000000009,-1040.0000000000045,-1510.0000000000066,-840.0000000000038,20.00000000000009,740.0000000000033,920.0000000000041
-0.0,30.000000000000135,20.00000000000009,-10.000000000000044,-0.0,20.00000000000009,-1240.0000000000055,-1750.0000000000077,-970.0000000000043,-100.00000000000044,720.0000000000032,980.0000000000043
-0.0,20.00000000000009,10.000000000000044,-10.000000000000044,-0.0,10.000000000000044,-1350.000000000006,-1880.0000000000084,-1040.0000000000045,-230.00000000000102,640.0000000000028,950.0000000000042
-0.0,10.000000000000044,10.000000000000044,-0.0,-0.0,10.000000000000044,-1380.0000000000061,-1900.0000000000084,-1060.0000000000048,-340.00000000000153,510.0000000000023,860.0000000000039
-0.0,10.000000000000044,10.000000000000044,-0.0,-0.0,10.000000000000044,-1330.000000000006,-1820.0000000000082,-1000.0000000000044,-390.0000000000017,380.0000000000017,750.0000000000033
-0.0,10.000000000000044,10.000000000000044,-0.0,-10.000000000000044,10.000000000000044,-1220.0000000000055,-1640.0000000000073,-880.0000000000039,-410.0000000000018,240.00000000000108,620.0000000000027
-0.0,-0.0,10.000000000000044,-0.0,-0.0,-0.0,-1050.0000000000048,-1390.0000000000061,-740.0000000000033,-390.0000000000017,120.00000000000054,470.0000000000021
-0.0,-0.0,10.000000000000044,-0.0,-0.0,-0.0,-860.0000000000039,-1120.000000000005,-590.0000000000026,-360.0000000000016,20.00000000000009,330.0000000000015
-0.0,-0.0,-0.0,-0.0,-0.0,-0.0,-670.000000000003,-860.0000000000039,-450.000000000002,-310.00000000000136,-40.00000000000018,210.00000000000094
-0.0,-0.0,-0.0,-0.0,-0.0,-0.0,-490.00000000000216,-610.0000000000027,-310.00000000000136,-240.00000000000108,-80.00000000000036,110.00000000000048
-0.0,-0.0,-0.0,-0.0,-0.0,-0.0,-330.0000000000015,-410.0000000000018,-200.00000000000088,-170.00000000000077,-100.00000000000044,40.00000000000018
-0.0,-0.0,-0.0,-0.0,-0.0,-0.0,-220.00000000000097,-260.00000000000114,-100.00000000000044,-100.00000000000044,-80.00000000000036,-0.0
-0.0,-0.0,-0.0,-0.0,-0.0,-0.0,-130.00000000000057,-140.00000000000063,-30.000000000000135,-40.00000000000018,-60.00000000000027,-0.0
-0.0,-0.0,-0.0,-0.0,-0.0,-0.0,-70.00000000000031,-50.00000000000022,10.000000000000044,-10.000000000000044,-40.00000000000018,-0.0
-0.0,-0.0,-0.0,-0.0,-0.0,-0.0,-20.00000000000009,-0.0,30.000000000000135,-0.0,-20.00000000000009,-10.000000000000044
-0.0,-0.0,-0.0,-0.0,-0.0,-0.0,-0.0,30.000000000000135,40.00000000000018,10.000000000000044,-10.000000000000044,-20.00000000000009
-0.0,-0.0,-0.0,-0.0,-0.0,-0.0,-0.0,50.00000000000022,50.00000000000022,20.00000000000009,-10.000000000000044,-20.00000000000009
-0.0,-0.0,-0.0,-0.0,-0.0,-0.0,20.00000000000009,60.00000000000027,60.00000000000027,20.00000000000009,-0.0,-30.000000000000135
-0.0,-0.0,-0.0,-0.0,-0.0,-0.0,30.000000000000135,80.00000000000036,80.00000000000036,30.000000000000135,-0.0,-30.000000000000135
-0.0,-0.0,-0.0,-0.0,-0.0,-0.0,30.000000000000135,90.0000000000004,90.0000000000004,40.00000000000018,-0.0,-30.000000000000135
-0.0,-0.0,-0.0,-0.0,-0.0,-0.0,40.00000000000018,100.00000000000044,90.0000000000004,50.00000000000022,-0.0,-40.00000000000018
-0.0,-0.0,-0.0,-0.0,-0.0,-0.0,50.00000000000022,110.00000000000048,100.00000000000044,60.00000000000027,-0.0,-40.00000000000018
-0.0,-0.0,-0.0,-0.0,-0.0,-0.0,50.00000000000022,120.00000000000054,110.00000000000048,60.00000000000027,-0.0,-40.00000000000018
-0.0,-0.0,-0.0,-0.0,-0.0,-0.0,50.00000000000022,140.00000000000063,120.00000000000054,70.00000000000031,10.000000000000044,-30.000000000000135
-0.0,-0.0,-0.0,-0.0,-0.0,-0.0,60.00000000000027,140.00000000000063,130.00000000000057,80.00000000000036,10.000000000000044,-30.000000000000135
-0.0,-0.0,-0.0,-0.0,-0.0,-0.0,60.00000000000027,150.00000000000065,140.00000000000063,90.0000000000004,20.00000000000009,-30.000000000000135
-0.0,-0.0,-0.0,-0.0,-0.0,-0.0,60.00000000000027,160.0000000000007,150.00000000000065,100.00000000000044,20.00000000000009,-30.000000000000135
-0.0,-0.0,-0.0,-0.0,-0.0,-0.0,60.00000000000027,170.00000000000077,150.00000000000065,100.00000000000044,30.000000000000135,-20.00000000000009
-0.0,-0.0,-0.0,-0.0,-0.0,-0.0,70.00000000000031,180.0000000000008,160.0000000000007,110.00000000000048,30.000000000000135,-20.00000000000009
-0.0,-0.0,-0.0,-0.0,-0.0,-0.0,70.00000000000031,180.0000000000008,170.00000000000077,120.00000000000054,40.00000000000018,-20.00000000000009
-0.0,-0.0,-0.0,-0.0,-0.0,-0.0,70.00000000000031,200.00000000000088,180.0000000000008,130.00000000000057,50.00000000000022,-20.00000000000009
-0.0,-0.0,-0.0,-0.0,-0.0,-0.0,70.00000000000031,200.00000000000088,190.00000000000085,140.00000000000063,50.00000000000022,-20.00000000000009
-0.0,-0.0,-0.0,-0.0,-0.0,-0.0,70.00000000000031,210.00000000000094,200.00000000000088,150.00000000000065,60.00000000000027,-20.00000000000009
-0.0,-0.0,-0.0,-0.0,-0.0,-0.0,70.00000000000031,220.00000000000097,210.00000000000094,160.0000000000007,60.00000000000027,-10.000000000000044
-0.0,-0.0,-0.0,-0.0,-0.0,-0.0,80.00000000000036,230.00000000000102,230.00000000000102,170.00000000000077,70.00000000000031,-10.000000000000044
-0.0,-0.0,-0.0,-0.0,-0.0,-0.0,70.00000000000031,240.00000000000108,240.00000000000108,180.0000000000008,80.00000000000036,-10.000000000000044
-0.0,-0.0,-0.0,-0.0,-0.0,-0.0,80.00000000000036,260.00000000000114,250.0000000000011,190.00000000000085,80.00000000000036,-0.0
-0.0,-0.0,-0.0,-0.0,-0.0,-0.0,80.00000000000036,270.0000000000012,270.0000000000012,200.00000000000088,90.0000000000004,-0.0
-0.0,-0.0,-0.0,-0.0,-0.0,-0.0,80.00000000000036,290.0000000000013,290.0000000000013,210.00000000000094,100.00000000000044,-0.0
-0.0,-0.0,-0.0,-0.0,-0.0,-0.0,80.00000000000036,300.0000000000013,300.0000000000013,230.00000000000102,110.00000000000048,-0.0
-0.0,-0.0,-0.0,-0.0,-0.0,-0.0,80.00000000000036,320.0000000000014,320.0000000000014,250.0000000000011,120.00000000000054,-0.0
-0.0,-0.0,-0.0,-0.0,-0.0,-0.0,80.00000000000036,340.00000000000153,340.00000000000153,260.00000000000114,130.00000000000057,10.000000000000044
-0.0,-0.0,-0.0,-0.0,-0.0,-0.0,80.00000000000036,350.00000000000153,350.00000000000153,280.00000000000125,140.00000000000063,10.000000000000044
-0.0,-0.0,-0.0,-0.0,-0.0,-0.0,80.00000000000036,370.00000000000165,380.0000000000017,300.0000000000013,150.00000000000065,20.00000000000009
-0.0,-0.0,-0.0,-0.0,-0.0,-0.0,70.00000000000031,390.0000000000017,400.00000000000176,310.00000000000136,160.0000000000007,30.000000000000135
-0.0,-0.0,-0.0,-0.0,-0.0,-0.0,70.00000000000031,410.0000000000018,410.0000000000018,330.0000000000015,180.0000000000008,40.00000000000018
-0.0,-0.0,-0.0,-0.0,-0.0,-0.0,70.00000000000031,420.0000000000019,430.00000000000193,350.00000000000153,190.00000000000085,50.00000000000022
-0.0,-0.0,-0.0,-0.0,-0.0,-0.0,70.00000000000031,440.00000000000193,450.000000000002,370.00000000000165,210.00000000000094,60.00000000000027
-0.0,-0.0,-0.0,-0.0,-0.0,-0.0,70.00000000000031,450.000000000002,470.0000000000021,390.0000000000017,220.00000000000097,70.00000000000031
-0.0,-0.0,-0.0,-0.0,-0.0,-0.0,60.00000000000027,460.00000000000205,480.00000000000216,410.0000000000018,230.00000000000102,80.00000000000036
-0.0,-0.0,-0.0,-0.0,-0.0,-0.0,60.00000000000027,470.0000000000021,490.00000000000216,420.0000000000019,250.0000000000011,90.0000000000004
-0.0,-0.0,-0.0,-0.0,-0.0,-0.0,50.00000000000022,480.00000000000216,500.0000000000022,430.00000000000193,260.00000000000114,100.00000000000044
-0.0,-0.0,-0.0,-0.0,-0.0,-0.0,50.00000000000022,480.00000000000216,500.0000000000022,440.00000000000193,270.0000000000012,110.00000000000048
-0.0,-0.0,-0.0,-0.0,-0.0,-0.0,40.00000000000018,480.00000000000216,500.0000000000022,440.00000000000193,280.00000000000125,130.00000000000057
-0.0,-0.0,-0.0,-0.0,-0.0,-0.0,30.000000000000135,470.0000000000021,500.0000000000022,440.00000000000193,290.0000000000013,140.00000000000063
-0.0,-0.0,-0.0,-0.0,-0.0,-0.0,30.000000000000135,470.0000000000021,490.00000000000216,440.00000000000193,300.0000000000013,150.00000000000065
-0.0,-0.0,-0.0,-0.0,-0.0,-0.0,20.00000000000009,460.00000000000205,470.0000000000021,430.00000000000193,310.00000000000136,160.0000000000007
-10.000000000000044,-0.0,-0.0,-0.0,-0.0,-0.0,10.000000000000044,440.00000000000193,460.00000000000205,420.0000000000019,310.00000000000136,170.00000000000077
-10.000000000000044,-0.0,-0.0,-0.0,-0.0,-0.0,10.000000000000044,420.0000000000019,440.00000000000193,410.0000000000018,310.00000000000136,180.0000000000008
-10.000000000000044,-0.0,-0.0,10.000000000000044,-10.000000000000044,-0.0,-0.0,400.00000000000176,410.0000000000018,390.0000000000017,300.0000000000013,180.0000000000008
-10.000000000000044,-0.0,-0.0,10.000000000000044,-10.000000000000044,-0.0,-0.0,370.00000000000165,390.0000000000017,360.0000000000016,290.0000000000013,180.0000000000008
-10.000000000000044,-0.0,-0.0,10.000000000000044,-10.000000000000044,-0.0,-0.0,350.00000000000153,360.0000000000016,340.00000000000153,280.00000000000125,180.0000000000008
-10.000000000000044,-0.0,-0.0,10.000000000000044,-10.000000000000044,-0.0,-0.0,320.0000000000014,330.0000000000015,310.00000000000136,270.0000000000012,180.0000000000008
-10.000000000000044,-0.0,-0.0,10.000000000000044,-10.000000000000044,-0.0,-0.0,290.0000000000013,300.0000000000013,290.0000000000013,250.0000000000011,170.00000000000077
-10.000000000000044,-0.0,-0.0,-0.0,-0.0,-0.0,-0.0,260.00000000000114,260.00000000000114,260.00000000000114,230.00000000000102,160.0000000000007
-10.000000000000044,-0.0,-0.0,-0.0,-0.0,-0.0,-0.0,230.00000000000102,230.00000000000102,230.00000000000102,210.00000000000094,150.00000000000065
-10.000000000000044,-0.0,-0.0,10.000000000000044,-0.0,-0.0,-0.0,200.00000000000088,200.00000000000088,200.00000000000088,190.00000000000085,140.00000000000063
-10.000000000000044,-10.000000000000044,-0.0,-0.0,-0.0,-0.0,-0.0,170.00000000000077,170.00000000000077,170.00000000000077,170.00000000000077,120.00000000000054
-0.0,-0.0,-0.0,-0.0,-0.0,-0.0,-0.0,140.00000000000063,140.00000000000063,140.00000000000063,150.00000000000065,110.00000000000048
-10.000000000000044,-0.0,-0.0,-0.0,-0.0,-0.0,-0.0,120.00000000000054,120.00000000000054,120.00000000000054,130.00000000000057,90.0000000000004
-10.000000000000044,-0.0,-0.0,-0.0,-0.0,-0.0,-0.0,100.00000000000044,100.00000000000044,100.00000000000044,110.00000000000048,80.00000000000036
-0.0,-0.0,-0.0,-0.0,-0.0,-0.0,-0.0,80.00000000000036,80.00000000000036,80.00000000000036,90.0000000000004,60.00000000000027
-10.000000000000044,-0.0,-0.0,-0.0,-0.0,-0.0,-0.0,70.00000000000031,60.00000000000027,60.00000000000027,70.00000000000031,50.00000000000022
-10.000000000000044,-0.0,-0.0,10.000000000000044,-0.0,-0.0,-0.0,60.00000000000027,50.00000000000022,50.00000000000022,60.00000000000027,40.00000000000018
-10.000000000000044,-10.000000000000044,-0.0,10.000000000000044,-0.0,-0.0,-0.0,50.00000000000022,40.00000000000018,40.00000000000018,50.00000000000022,30.000000000000135
-10.000000000000044,-10.000000000000044,-0.0,10.000000000000044,-10.000000000000044,-0.0,-0.0,40.00000000000018,40.00000000000018,30.000000000000135,40.00000000000018,20.00000000000009
-20.00000000000009,-10.000000000000044,-0.0,10.000000000000044,-10.000000000000044,-0.0,-0.0,30.000000000000135,30.000000000000135,30.000000000000135,30.000000000000135,20.00000000000009
-20.00000000000009,-10.000000000000044,-0.0,10.000000000000044,-10.000000000000044,-0.0,-0.0,30.000000000000135,20.00000000000009,20.00000000000009,30.000000000000135,10.000000000000044
-20.00000000000009,-10.000000000000044,-0.0,10.000000000000044,-10.000000000000044,-0.0,-0.0,20.00000000000009,20.00000000000009,20.00000000000009,20.00000000000009,10.000000000000044
-20.00000000000009,-10.000000000000044,-0.0,20.00000000000009,-10.000000000000044,-0.0,-0.0,20.00000000000009,20.00000000000009,20.00000000000009,20.00000000000009,10.000000000000044
-20.00000000000009,-20.00000000000009,-0.0,20.00000000000009,-10.000000000000044,-0.0,-0.0,20.00000000000009,20.00000000000009,10.000000000000044,10.000000000000044,-0.0
-20.00000000000009,-20.00000000000009,-0.0,20.00000000000009,-10.000000000000044,-0.0,-0.0,10.000000000000044,10.000000000000044,10.000000000000044,10.000000000000044,-0.0
-30.000000000000135,-20.00000000000009,-0.0,20.00000000000009,-20.00000000000009,-0.0,-0.0,10.000000000000044,10.000000000000044,10.000000000000044,10.000000000000044,-0.0
-30.000000000000135,-10.000000000000044,10.000000000000044,20.00000000000009,-20.00000000000009,-0.0,-0.0,10.000000000000044,10.000000000000044,10.000000000000044,10.000000000000044,-0.0
-30.000000000000135,-10.000000000000044,10.000000000000044,20.00000000000009,-20.00000000000009,-0.0,-0.0,10.000000000000044,10.000000000000044,-0.0,-0.0,-0.0
-20.00000000000009,-10.000000000000044,10.000000000000044,20.00000000000009,-10.000000000000044,-0.0,-0.0,-0.0,-0.0,-0.0,-0.0,-0.0
-20.00000000000009,-10.000000000000044,10.000000000000044,10.000000000000044,-20.00000000000009,-0.0,-0.0,-0.0,-0.0,-0.0,-0.0,-0.0
-20.00000000000009,-10.000000000000044,10.000000000000044,10.000000000000044,-10.000000000000044,-0.0,-0.0,-0.0,-0.0,-0.0,-0.0,-0.0
-10.000000000000044,-10.000000000000044,10.000000000000044,-0.0,-10.000000000000044,-0.0,-0.0,-0.0,-0.0,-0.0,-0.0,-0.0
-10.000000000000044,-0.0,10.000000000000044,-0.0,-10.000000000000044,-0.0,-0.0,-0.0,-0.0,-0.0,-0.0,-0.0
-0.0,-0.0,10.000000000000044,-0.0,-10.000000000000044,10.000000000000044,-0.0,-0.0,-0.0,-0.0,-0.0,-0.0
-0.0,-0.0,10.000000000000044,-0.0,-0.0,10.000000000000044,-0.0,-0.0,-0.0,-0.0,-0.0,-0.0
-0.0,10.000000000000044,20.00000000000009,-10.000000000000044,-10.000000000000044,20.00000000000009,-0.0,-0.0,-0.0,-0.0,-0.0,-0.0
-0.0,20.00000000000009,40.00000000000018,-20.00000000000009,-20.00000000000009,40.00000000000018,-0.0,-0.0,-0.0,-0.0,-0.0,-0.0
-0.0,40.00000000000018,40.00000000000018,-30.000000000000135,-20.00000000000009,50.00000000000022,-0.0,-0.0,-0.0,-0.0,-0.0,-0.0
10.000000000000044,50.00000000000022,50.00000000000022,-40.00000000000018,-10.000000000000044,50.00000000000022,-0.0,-0.0,-0.0,-0.0,-0.0,-0.0
10.000000000000044,60.00000000000027,50.00000000000022,-40.00000000000018,-10.000000000000044,60.00000000000027,-0.0,-0.0,-0.0,-0.0,-0.0,-0.0
10.000000000000044,70.00000000000031,60.00000000000027,-50.00000000000022,-20.00000000000009,70.00000000000031,-0.0,-0.0,-0.0,-0.0,-0.0,-0.0
20.00000000000009,80.00000000000036,70.00000000000031,-60.00000000000027,-20.00000000000009,80.00000000000036,-0.0,-0.0,-0.0,-0.0,-0.0,-0.0
30.000000000000135,90.0000000000004,70.00000000000031,-70.00000000000031,-10.000000000000044,90.0000000000004,-0.0,-0.0,-0.0,-0.0,-0.0,-0.0
30.000000000000135,100.00000000000044,70.00000000000031,-80.00000000000036,-10.000000000000044,90.0000000000004,-0.0,-0.0,-0.0,-0.0,-0.0,-0.0
40.00000000000018,110.00000000000048,70.00000000000031,-80.00000000000036,-10.000000000000044,100.00000000000044,-0.0,-0.0,-0.0,-0.0,-0.0,-0.0
50.00000000000022,120.00000000000054,70.00000000000031,-90.0000000000004,-0.0,100.00000000000044,-0.0,-0.0,-0.0,-0.0,-0.0,-0.0
50.00000000000022,130.00000000000057,70.00000000000031,-90.0000000000004,-0.0,100.00000000000044,-0.0,-0.0,-0.0,-0.0,-0.0,-0.0
50.00000000000022,130.00000000000057,70.00000000000031,-90.0000000000004,-0.0,100.00000000000044,-0.0,10.000000000000044,-0.0,-0.0,-0.0,-0.0
50.00000000000022,130.00000000000057,70.00000000000031,-90.0000000000004,-0.0,100.00000000000044,-0.0,10.000000000000044,10.000000000000044,-0.0,-0.0,-0.0
50.00000000000022,130.00000000000057,60.00000000000027,-90.0000000000004,-0.0,90.0000000000004,-0.0,10.000000000000044,10.000000000000044,-0.0,-0.0,-0.0
50.00000000000022,120.00000000000054,50.00000000000022,-80.00000000000036,-0.0,80.00000000000036,-0.0,10.000000000000044,10.000000000000044,10.000000000000044,-0.0,-0.0
40.00000000000018,110.00000000000048,50.00000000000022,-70.00000000000031,-0.0,70.00000000000031,-0.0,20.00000000000009,10.000000000000044,10.000000000000044,-0.0,-0.0
40.00000000000018,100.00000000000044,40.00000000000018,-60.00000000000027,-0.0,60.00000000000027,-0.0,20.00000000000009,10.000000000000044,10.000000000000044,-0.0,-0.0
30.000000000000135,80.00000000000036,30.000000000000135,-50.00000000000022,-0.0,40.00000000000018,-0.0,20.00000000000009,10.000000000000044,10.000000000000044,-0.0,-0.0
20.00000000000009,60.00000000000027,20.00000000000009,-40.00000000000018,-0.0,30.000000000000135,-0.0,20.00000000000009,20.00000000000009,10.000000000000044,-0.0,-0.0
10.000000000000044,40.00000000000018,10.000000000000044,-20.00000000000009,-0.0,20.00000000000009,-0.0,20.00000000000009,20.00000000000009,10.000000000000044,-0.0,-0.0
-0.0,30.000000000000135,10.000000000000044,-10.000000000000044,-0.0,10.000000000000044,-0.0,20.00000000000009,20.00000000000009,10.000000000000044,-0.0,-0.0
-0.0,10.000000000000044,-0.0,-0.0,-0.0,-0.0,-0.0,20.00000000000009,20.00000000000009,10.000000000000044,-0.0,-0.0
-10.000000000000044,-0.0,-0.0,-0.0,-10.000000000000044,-0.0,-0.0,20.00000000000009,20.00000000000009,10.000000000000044,-0.0,-0.0
-20.00000000000009,-0.0,10.000000000000044,10.000000000000044,-10.000000000000044,-0.0,-0.0,20.00000000000009,20.00000000000009,10.000000000000044,-0.0,-0.0
-30.000000000000135,-10.000000000000044,10.000000000000044,20.00000000000009,-20.00000000000009,-0.0,-0.0,20.00000000000009,20.00000000000009,10.000000000000044,-0.0,-0.0
-30.000000000000135,-10.000000000000044,10.000000000000044,20.00000000000009,-20.00000000000009,-0.0,-0.0,20.00000000000009,20.00000000000009,-0.0,-0.0,-0.0
-40.00000000000018,-20.00000000000009,10.000000000000044,30.000000000000135,-20.00000000000009,-0.0,-0.0,20.00000000000009,20.00000000000009,-0.0,-0.0,-0.0
-40.00000000000018,-20.00000000000009,10.000000000000044,30.000000000000135,-30.000000000000135,-0.0,-0.0,20.00000000000009,10.000000000000044,-0.0,-0.0,-0.0
-40.00000000000018,-30.000000000000135,10.000000000000044,30.000000000000135,-30.000000000000135,-0.0,-0.0,20.00000000000009,20.00000000000009,-0.0,-0.0,-0.0
-40.00000000000018,-30.000000000000135,10.000000000000044,40.00000000000018,-30.000000000000135,-0.0,-0.0,20.00000000000009,10.000000000000044,-0.0,-0.0,-0.0
-50.00000000000022,-30.000000000000135,10.000000000000044,40.00000000000018,-30.000000000000135,-0.0,-0.0,10.000000000000044,10.000000000000044,-0.0,-0.0,-0.0
-50.00000000000022,-30.000000000000135,10.000000000000044,40.00000000000018,-30.000000000000135,-0.0,-0.0,10.000000000000044,10.000000000000044,-0.0,-0.0,-0.0
-50.00000000000022,-30.000000000000135,10.000000000000044,40.00000000000018,-30.000000000000135,-0.0,-0.0,10.000000000000044,10.000000000000044,-0.0,-0.0,-0.0
-50.00000000000022,-30.000000000000135,10.000000000000044,40.00000000000018,-30.000000000000135,-0.0,-0.0,10.000000000000044,-0.0,-0.0,-0.0,-0.0
-50.00000000000022,-30.000000000000135,10.000000000000044,40.00000000000018,-30.000000000000135,-0.0,-0.0,-0.0,-0.0,-0.0,-0.0,-0.0
-50.00000000000022,-30.000000000000135,10.000000000000044,40.00000000000018,-30.000000000000135,-10.000000000000044,-0.0,-0.0,-0.0,-0.0,-0.0,-0.0
-50.00000000000022,-40.00000000000018,10.000000000000044,40.00000000000018,-30.000000000000135,-10.000000000000044,-0.0,-0.0,-0.0,-0.0,-0.0,-0.0
-60.00000000000027,-40.00000000000018,10.000000000000044,50.00000000000022,-30.000000000000135,-10.000000000000044,-0.0,-0.0,-0.0,-0.0,-0.0,-0.0
-70.00000000000031,-40.00000000000018,-0.0,50.00000000000022,-30.000000000000135,-20.00000000000009,-0.0,-0.0,-0.0,-0.0,-0.0,-0.0
-80.00000000000036,-60.00000000000027,-0.0,70.00000000000031,-30.000000000000135,-30.000000000000135,-0.0,-0.0,-0.0,-0.0,-10.000000000000044,-0.0
-80.00000000000036,-80.00000000000036,-0.0,80.00000000000036,-30.000000000000135,-50.00000000000022,-0.0,-0.0,-0.0,-0.0,-10.000000000000044,-0.0
-90.0000000000004,-90.0000000000004,-20.00000000000009,90.0000000000004,-30.000000000000135,-60.00000000000027,-0.0,-0.0,-0.0,-0.0,-10.000000000000044,-0.0
-90.0000000000004,-110.00000000000048,-40.00000000000018,100.00000000000044,-20.00000000000009,-80.00000000000036,-0.0,-0.0,-0.0,-0.0,-10.000000000000044,-0.0
-70.00000000000031,-130.00000000000057,-40.00000000000018,90.0000000000004,-10.000000000000044,-80.00000000000036,-0.0,-0.0,-0.0,-0.0,-10.000000000000044,-0.0
-40.00000000000018,-120.00000000000054,-40.00000000000018,50.00000000000022,-0.0,-60.00000000000027,-0.0,-0.0,-0.0,-0.0,-10.000000000000044,-0.0
20.00000000000009,-80.00000000000036,-40.00000000000018,-0.0,20.00000000000009,-30.000000000000135,-0.0,-0.0,-0.0,-0.0,-10.000000000000044,-0.0
110.00000000000048,-20.00000000000009,-30.000000000000135,-100.00000000000044,70.00000000000031,20.00000000000009,-0.0,-0.0,-0.0,-0.0,-10.000000000000044,-0.0
250.0000000000011,80.00000000000036,-0.0,-260.00000000000114,130.00000000000057,110.00000000000048,-0.0,-0.0,-0.0,-0.0,-10.000000000000044,-0.0
430.00000000000193,240.00000000000108,30.000000000000135,-450.000000000002,200.00000000000088,240.00000000000108,-0.0,-0.0,-0.0,-0.0,-10.000000000000044,-0.0
620.0000000000027,460.00000000000205,50.00000000000022,-660.000000000003,280.00000000000125,370.00000000000165,-0.0,-0.0,-0.0,-0.0,-10.000000000000044,-10.000000000000044
790.0000000000035,680.0000000000031,80.00000000000036,-840.0000000000038,360.0000000000016,470.0000000000021,-0.0,-0.0,-0.0,-0.0,-10.000000000000044,-10.000000000000044
920.0000000000041,870.0000000000039,100.00000000000044,-980.0000000000043,410.0000000000018,560.0000000000025,-0.0,-0.0,-0.0,-0.0,-10.000000000000044,-0.0
990.0000000000044,1030.0000000000045,100.00000000000044,-1050.0000000000048,440.00000000000193,600.0000000000026,-0.0,-0.0,-0.0,-0.0,-10.000000000000044,-10.000000000000044
990.0000000000044,1110.000000000005,70.00000000000031,-1030.0000000000045,450.000000000002,560.0000000000025,-0.0,-0.0,-0.0,-0.0,-10.000000000000044,-10.000000000000044
920.0000000000041,1060.0000000000048,40.00000000000018,-950.0000000000042,430.00000000000193,510.0000000000023,-0.0,-0.0,-0.0,-0.0,-10.000000000000044,-10.000000000000044
810.0000000000036,970.0000000000043,30.000000000000135,-840.0000000000038,380.0000000000017,440.00000000000193,-0.0,-0.0,-0.0,-10.000000000000044,-10.000000000000044,-10.000000000000044
690.0000000000031,850.0000000000038,-10.000000000000044,-700.0000000000031,340.00000000000153,340.00000000000153,-0.0,-0.0,-0.0,-10.000000000000044,-10.000000000000044,-10.000000000000044
560.0000000000025,690.0000000000031,-50.00000000000022,-540.0000000000024,300.0000000000013,230.00000000000102,-0.0,-0.0,-0.0,-10.000000000000044,-10.000000000000044,-10.000000000000044
430.00000000000193,510.0000000000023,-70.00000000000031,-400.00000000000176,250.0000000000011,140.00000000000063,-0.0,-0.0,-0.0,-10.000000000000044,-10.000000000000044,-10.000000000000044
310.00000000000136,350.00000000000153,-80.00000000000036,-270.0000000000012,190.00000000000085,60.00000000000027,-0.0,-0.0,-0.0,-0.0,-10.000000000000044,-0.0
210.00000000000094,220.00000000000097,-100.00000000000044,-160.0000000000007,150.00000000000065,-0.0,-0.0,-0.0,-0.0,-0.0,-10.000000000000044,-0.0
130.00000000000057,100.00000000000044,-110.00000000000048,-80.00000000000036,110.00000000000048,-40.00000000000018,-0.0,-0.0,-0.0,-0.0,-0.0,-0.0
70.00000000000031,20.00000000000009,-90.0000000000004,-30.000000000000135,80.00000000000036,-40.00000000000018,10.000000000000044,-0.0,-0.0,-0.0,-0.0,-0.0
50.00000000000022,-0.0,-70.00000000000031,-10.000000000000044,60.00000000000027,-40.00000000000018,10.000000000000044,10.000000000000044,-0.0,-0.0,-0.0,-0.0
40.00000000000018,-20.00000000000009,-80.00000000000036,-0.0,60.00000000000027,-60.00000000000027,20.00000000000009,10.000000000000044,-0.0,-0.0,-0.0,-0.0
20.00000000000009,-40.00000000000018,-80.00000000000036,-0.0,40.00000000000018,-60.00000000000027,30.000000000000135,20.00000000000009,10.000000000000044,-0.0,-0.0,10.000000000000044
-0.0,-40.00000000000018,-60.00000000000027,10.000000000000044,30.000000000000135,-50.00000000000022,40.00000000000018,30.000000000000135,10.000000000000044,-0.0,10.000000000000044,10.000000000000044
-0.0,-40.00000000000018,-50.00000000000022,20.00000000000009,20.00000000000009,-50.00000000000022,40.00000000000018,30.000000000000135,20.00000000000009,10.000000000000044,10.000000000000044,20.00000000000009
-0.0,-50.00000000000022,-40.00000000000018,20.00000000000009,10.000000000000044,-50.00000000000022,40.00000000000018,30.000000000000135,20.00000000000009,10.000000000000044,20.00000000000009,20.00000000000009
-0.0,-50.00000000000022,-40.00000000000018,20.00000000000009,10.000000000000044,-50.00000000000022,40.00000000000018,30.000000000000135,20.00000000000009,20.00000000000009,20.00000000000009,30.000000000000135
-0.0,-50.00000000000022,-40.00000000000018,30.000000000000135,10.000000000000044,-50.00000000000022,30.000000000000135,30.000000000000135,20.00000000000009,20.00000000000009,30.000000000000135,40.00000000000018
-0.0,-50.00000000000022,-40.00000000000018,30.000000000000135,10.000000000000044,-50.00000000000022,10.000000000000044,20.00000000000009,10.000000000000044,20.00000000000009,30.000000000000135,40.00000000000018
-0.0,-50.00000000000022,-40.00000000000018,30.000000000000135,10.000000000000044,-50.00000000000022,-0.0,10.000000000000044,10.000000000000044,20.00000000000009,40.00000000000018,50.00000000000022
-0.0,-50.00000000000022,-40.00000000000018,30.000000000000135,10.000000000000044,-50.00000000000022,-0.0,-0.0,10.000000000000044,30.000000000000135,40.00000000000018,50.00000000000022
-0.0,-50.00000000000022,-50.00000000000022,30.000000000000135,20.00000000000009,-50.00000000000022,-0.0,-0.0,10.000000000000044,20.00000000000009,40.00000000000018,60.00000000000027
-0.0,-50.00000000000022,-50.00000000000022,20.00000000000009,20.00000000000009,-50.00000000000022,-10.000000000000044,-0.0,10.000000000000044,20.00000000000009,40.00000000000018,60.00000000000027
-0.0,-50.00000000000022,-50.00000000000022,20.00000000000009,20.00000000000009,-50.00000000000022,-20.00000000000009,-0.0,-0.0,20.00000000000009,40.00000000000018,60.00000000000027
-0.0,-50.00000000000022,-50.00000000000022,20.00000000000009,20.00000000000009,-50.00000000000022,-20.00000000000009,-0.0,-0.0,10.000000000000044,40.00000000000018,50.00000000000022
-0.0,-40.00000000000018,-60.00000000000027,10.000000000000044,30.000000000000135,-50.00000000000022,-20.00000000000009,-10.000000000000044,-0.0,-0.0,30.000000000000135,40.00000000000018
10.000000000000044,-40.00000000000018,-60.00000000000027,10.000000000000044,30.000000000000135,-50.00000000000022,-30.000000000000135,-10.000000000000044,-10.000000000000044,-0.0,20.00000000000009,30.000000000000135
10.000000000000044,-40.00000000000018,-60.00000000000027,10.000000000000044,30.000000000000135,-50.00000000000022,-30.000000000000135,-20.00000000000009,-20.00000000000009,-0.0,10.000000000000044,20.00000000000009
20.00000000000009,-40.00000000000018,-60.00000000000027,-0.0,40.00000000000018,-40.00000000000018,-30.000000000000135,-30.000000000000135,-30.000000000000135,-20.00000000000009,-0.0,20.00000000000009
20.00000000000009,-30.000000000000135,-60.00000000000027,-0.0,40.00000000000018,-50.00000000000022,-30.000000000000135,-30.000000000000135,-40.00000000000018,-30.000000000000135,-0.0,-0.0
30.000000000000135,-30.000000000000135,-60.00000000000027,-0.0,40.00000000000018,-50.00000000000022,-30.000000000000135,-40.00000000000018,-50.00000000000022,-30.000000000000135,-10.000000000000044,-0.0
30.000000000000135,-30.000000000000135,-70.00000000000031,-0.0,50.00000000000022,-40.00000000000018,-30.000000000000135,-40.00000000000018,-60.00000000000027,-40.00000000000018,-20.00000000000009,-0.0
40.00000000000018,-30.000000000000135,-70.00000000000031,-10.000000000000044,50.00000000000022,-40.00000000000018,-30.000000000000135,-50.00000000000022,-60.00000000000027,-50.00000000000022,-30.000000000000135,-10.000000000000044
50.00000000000022,-20.00000000000009,-80.00000000000036,-10.000000000000044,60.00000000000027,-50.00000000000022,-30.000000000000135,-50.00000000000022,-70.00000000000031,-50.00000000000022,-30.000000000000135,-20.00000000000009
50.00000000000022,-20.00000000000009,-80.00000000000036,-10.000000000000044,60.00000000000027,-50.00000000000022,-30.000000000000135,-50.00000000000022,-70.00000000000031,-60.00000000000027,-40.00000000000018,-20.00000000000009
60.00000000000027,-20.00000000000009,-90.0000000000004,-20.00000000000009,70.00000000000031,-50.00000000000022,-30.000000000000135,-50.00000000000022,-70.00000000000031,-60.00000000000027,-40.00000000000018,-20.00000000000009
80.00000000000036,-10.000000000000044,-90.0000000000004,-30.000000000000135,80.00000000000036,-50.00000000000022,-30.000000000000135,-60.00000000000027,-80.00000000000036,-60.00000000000027,-40.00000000000018,-30.000000000000135
90.0000000000004,-10.000000000000044,-90.0000000000004,-40.00000000000018,90.0000000000004,-50.00000000000022,-20.00000000000009,-60.00000000000027,-80.00000000000036,-60.00000000000027,-50.00000000000022,-30.000000000000135
100.00000000000044,-0.0,-100.00000000000044,-50.00000000000022,100.00000000000044,-50.00000000000022,-30.000000000000135,-60.00000000000027,-80.00000000000036,-60.00000000000027,-50.00000000000022,-30.000000000000135
110.00000000000048,-0.0,-110.00000000000048,-60.00000000000027,110.00000000000048,-50.00000000000022,-30.000000000000135,-60.00000000000027,-80.00000000000036,-60.00000000000027,-50.00000000000022,-30.000000000000135
130.00000000000057,-0.0,-120.00000000000054,-70.00000000000031,120.00000000000054,-50.00000000000022,-30.000000000000135,-60.00000000000027,-80.00000000000036,-70.00000000000031,-50.00000000000022,-30.000000000000135
140.00000000000063,10.000000000000044,-120.00000000000054,-90.0000000000004,130.00000000000057,-50.00000000000022,-30.000000000000135,-60.00000000000027,-80.00000000000036,-70.00000000000031,-50.00000000000022,-30.000000000000135
160.0000000000007,10.000000000000044,-130.00000000000057,-100.00000000000044,140.00000000000063,-40.00000000000018,-30.000000000000135,-60.00000000000027,-80.00000000000036,-70.00000000000031,-50.00000000000022,-30.000000000000135
180.0000000000008,30.000000000000135,-140.00000000000063,-120.00000000000054,160.0000000000007,-40.00000000000018,-30.000000000000135,-60.00000000000027,-80.00000000000036,-70.00000000000031,-50.00000000000022,-30.000000000000135
200.00000000000088,40.00000000000018,-140.00000000000063,-130.00000000000057,170.00000000000077,-40.00000000000018,-20.00000000000009,-60.00000000000027,-80.00000000000036,-70.00000000000031,-50.00000000000022,-30.000000000000135
210.00000000000094,50.00000000000022,-150.00000000000065,-150.00000000000065,180.0000000000008,-30.000000000000135,-20.00000000000009,-60.00000000000027,-80.00000000000036,-70.00000000000031,-60.00000000000027,-30.000000000000135
240.00000000000108,60.00000000000027,-160.0000000000007,-170.00000000000077,190.00000000000085,-30.000000000000135,-20.00000000000009,-60.00000000000027,-80.00000000000036,-70.00000000000031,-60.00000000000027,-30.000000000000135
260.00000000000114,80.00000000000036,-160.0000000000007,-180.0000000000008,210.00000000000094,-30.000000000000135,-20.00000000000009,-60.00000000000027,-80.00000000000036,-70.00000000000031,-60.00000000000027,-40.00000000000018
270.0000000000012,90.0000000000004,-160.0000000000007,-200.00000000000088,210.00000000000094,-20.00000000000009,-20.00000000000009,-50.00000000000022,-50.00000000000022,-60.00000000000027,-60.00000000000027,-50.00000000000022
290.0000000000013,110.00000000000048,-160.0000000000007,-220.00000000000097,220.00000000000097,-10.000000000000044,-0.0,-20.00000000000009,-20.00000000000009,-50.00000000000022,-70.00000000000031,-60.00000000000027
310.00000000000136,130.00000000000057,-160.0000000000007,-240.00000000000108,230.00000000000102,-0.0,20.00000000000009,20.00000000000009,20.00000000000009,-20.00000000000009,-70.00000000000031,-70.00000000000031
330.0000000000015,140.00000000000063,-160.0000000000007,-250.0000000000011,240.00000000000108,-0.0,60.00000000000027,90.0000000000004,90.0000000000004,10.000000000000044,-70.00000000000031,-90.0000000000004
340.00000000000153,160.0000000000007,-160.0000000000007,-270.0000000000012,250.0000000000011,-0.0,110.00000000000048,180.0000000000008,150.00000000000065,60.00000000000027,-60.00000000000027,-100.00000000000044
360.0000000000016,180.0000000000008,-160.0000000000007,-280.00000000000125,260.00000000000114,10.000000000000044,150.00000000000065,270.0000000000012,200.00000000000088,110.00000000000048,-40.00000000000018,-100.00000000000044
370.00000000000165,190.00000000000085,-160.0000000000007,-290.0000000000013,260.00000000000114,20.00000000000009,180.0000000000008,310.00000000000136,220.00000000000097,160.0000000000007,-10.000000000000044,-80.00000000000036
370.00000000000165,210.00000000000094,-150.00000000000065,-290.0000000000013,260.00000000000114,30.000000000000135,170.00000000000077,270.0000000000012,180.0000000000008,190.00000000000085,40.00000000000018,-30.000000000000135
370.00000000000165,210.00000000000094,-150.00000000000065,-300.0000000000013,260.00000000000114,30.000000000000135,120.00000000000054,170.00000000000077,90.0000000000004,210.00000000000094,110.00000000000048,40.00000000000018
370.00000000000165,220.00000000000097,-140.00000000000063,-300.0000000000013,250.0000000000011,40.00000000000018,10.000000000000044,-30.000000000000135,-50.00000000000022,220.00000000000097,210.00000000000094,160.0000000000007
360.0000000000016,230.00000000000102,-130.00000000000057,-300.0000000000013,240.00000000000108,50.00000000000022,-170.00000000000077,-330.0000000000015,-220.00000000000097,210.00000000000094,340.00000000000153,330.0000000000015
340.00000000000153,230.00000000000102,-110.00000000000048,-290.0000000000013,220.00000000000097,50.00000000000022,-410.0000000000018,-680.0000000000031,-410.0000000000018,180.0000000000008,480.00000000000216,510.0000000000023
320.0000000000014,230.00000000000102,-100.00000000000044,-280.00000000000125,210.00000000000094,60.00000000000027,-670.000000000003,-1040.0000000000045,-600.0000000000026,120.00000000000054,590.0000000000026,680.0000000000031
300.0000000000013,220.00000000000097,-90.0000000000004,-260.00000000000114,190.00000000000085,60.00000000000027,-940.0000000000042,-1380.0000000000061,-780.0000000000034,30.000000000000135,660.000000000003,820.0000000000036
270.0000000000012,210.00000000000094,-70.00000000000031,-240.00000000000108,170.00000000000077,60.00000000000027,-1160.0000000000052,-1650.0000000000073,-930.0000000000041,-90.0000000000004,680.0000000000031,910.0000000000041
240.00000000000108,200.00000000000088,-50.00000000000022,-220.00000000000097,140.00000000000063,70.00000000000031,-1310.000000000006,-1830.0000000000082,-1030.0000000000045,-220.00000000000097,620.0000000000027,920.0000000000041
220.00000000000097,190.00000000000085,-40.00000000000018,-200.00000000000088,120.00000000000054,70.00000000000031,-1370.0000000000061,-1900.0000000000084,-1070.0000000000048,-330.0000000000015,510.0000000000023,850.0000000000038
180.0000000000008,170.00000000000077,-30.000000000000135,-180.0000000000008,100.00000000000044,60.00000000000027,-1350.000000000006,-1850.0000000000082,-1030.0000000000045,-390.0000000000017,380.0000000000017,760.0000000000034
150.00000000000065,160.0000000000007,-10.000000000000044,-150.00000000000065,80.00000000000036,60.00000000000027,-1270.0000000000057,-1710.0000000000075,-930.0000000000041,-420.0000000000019,260.00000000000114,640.0000000000028
130.00000000000057,140.00000000000063,-0.0,-130.00000000000057,60.00000000000027,60.00000000000027,-1120.000000000005,-1480.0000000000066,-790.0000000000035,-410.0000000000018,130.00000000000057,500.0000000000022
100.00000000000044,120.00000000000054,-0.0,-110.00000000000048,40.00000000000018,50.00000000000022,-940.0000000000042,-1220.0000000000055,-640.0000000000028,-380.0000000000017,30.000000000000135,360.0000000000016
80.00000000000036,100.00000000000044,-0.0,-90.0000000000004,30.000000000000135,50.00000000000022,-750.0000000000033,-950.0000000000042,-500.0000000000022,-330.0000000000015,-30.000000000000135,240.00000000000108
60.00000000000027,90.0000000000004,10.000000000000044,-80.00000000000036,20.00000000000009,40.00000000000018,-560.0000000000025,-700.0000000000031,-360.0000000000016,-260.00000000000114,-80.00000000000036,140.00000000000063
50.00000000000022,80.00000000000036,10.000000000000044,-60.00000000000027,10.000000000000044,40.00000000000018,-390.0000000000017,-480.00000000000216,-240.00000000000108,-190.00000000000085,-110.00000000000048,50.00000000000022
30.000000000000135,60.00000000000027,10.000000000000044,-50.00000000000022,-0.0,30.000000000000135,-260.00000000000114,-300.0000000000013,-140.00000000000063,-130.00000000000057,-110.00000000000048,10.000000000000044
20.00000000000009,50.00000000000022,10.000000000000044,-30.000000000000135,-0.0,20.00000000000009,-160.0000000000007,-170.00000000000077,-50.00000000000022,-70.00000000000031,-80.00000000000036,-0.0
10.000000000000044,40.00000000000018,10.000000000000044,-20.00000000000009,-0.0,20.00000000000009,-90.0000000000004,-80.00000000000036,-0.0,-20.00000000000009,-60.00000000000027,-0.0
-0.0,30.000000000000135,10.000000000000044,-10.000000000000044,-0.0,10.000000000000044,-50.00000000000022,-20.00000000000009,20.00000000000009,-0.0,-40.00000000000018,-10.000000000000044
-0.0,20.00000000000009,10.000000000000044,-10.000000000000044,-0.0,10.000000000000044,-10.000000000000044,20.00000000000009,30.000000000000135,-0.0,-30.000000000000135,-20.00000000000009
-0.0,10.000000000000044,10.000000000000044,-0.0,-0.0,10.000000000000044,-0.0,40.00000000000018,50.00000000000022,10.000000000000044,-20.00000000000009,-20.00000000000009
-0.0,10.000000000000044,10.000000000000044,-0.0,-0.0,10.000000000000044,10.000000000000044,60.00000000000027,60.00000000000027,10.000000000000044,-20.00000000000009,-30.000000000000135
-0.0,10.000000000000044,10.000000000000044,-0.0,-0.0,-0.0,20.00000000000009,80.00000000000036,70.00000000000031,20.00000000000009,-20.00000000000009,-30.000000000000135
-0.0,-0.0,-0.0,-0.0,-0.0,-0.0,30.000000000000135,90.0000000000004,80.00000000000036,30.000000000000135,-20.00000000000009,-30.000000000000135
-0.0,-0.0,-0.0,-0.0,-0.0,-0.0,30.000000000000135,100.00000000000044,90.0000000000004,40.00000000000018,-10.000000000000044,-30.000000000000135
-0.0,-0.0,10.000000000000044,-0.0,-0.0,-0.0,40.00000000000018,110.00000000000048,90.0000000000004,40.00000000000018,-0.0,-30.000000000000135
-10.000000000000044,-0.0,10.000000000000044,-0.0,-10.000000000000044,-0.0,40.00000000000018,120.00000000000054,100.00000000000044,50.00000000000022,-0.0,-30.000000000000135
-10.000000000000044,-0.0,10.000000000000044,-0.0,-10.000000000000044,-0.0,50.00000000000022,130.00000000000057,110.00000000000048,60.00000000000027,-0.0,-30.000000000000135
-10.000000000000044,-0.0,10.000000000000044,-0.0,-10.000000000000044,-0.0,50.00000000000022,140.00000000000063,120.00000000000054,70.00000000000031,-0.0,-30.000000000000135
-0.0,-0.0,-0.0,-0.0,-0.0,-0.0,50.00000000000022,150.00000000000065,120.00000000000054,70.00000000000031,-0.0,-30.000000000000135
-0.0,-0.0,-0.0,-0.0,-0.0,-0.0,50.00000000000022,150.00000000000065,130.00000000000057,80.00000000000036,-0.0,-20.00000000000009
-0.0,-0.0,-0.0,-0.0,-0.0,-0.0,50.00000000000022,170.00000000000077,140.00000000000063,90.0000000000004,10.000000000000044,-20.00000000000009
-0.0,-0.0,-0.0,-0.0,-0.0,-0.0,60.00000000000027,170.00000000000077,150.00000000000065,100.00000000000044,10.000000000000044,-20.00000000000009
-0.0,-0.0,-0.0,-0.0,-0.0,-0.0,60.00000000000027,180.0000000000008,160.0000000000007,100.00000000000044,20.00000000000009,-20.00000000000009
-0.0,-0.0,-0.0,-0.0,-0.0,-0.0,60.00000000000027,190.00000000000085,170.00000000000077,110.00000000000048,20.00000000000009,-10.000000000000044
-0.0,-0.0,-0.0,-0.0,-0.0,-0.0,60.00000000000027,200.00000000000088,180.0000000000008,120.00000000000054,30.000000000000135,-10.000000000000044
-0.0,-0.0,-0.0,-0.0,-0.0,-0.0,60.00000000000027,210.00000000000094,190.00000000000085,130.00000000000057,30.000000000000135,-10.000000000000044
-0.0,-0.0,-0.0,-0.0,-0.0,-0.0,60.00000000000027,220.00000000000097,200.00000000000088,140.00000000000063,40.00000000000018,-10.000000000000044
-0.0,-0.0,-10.000000000000044,-0.0,-0.0,-0.0,70.00000000000031,230.00000000000102,210.00000000000094,150.00000000000065,50.00000000000022,-0.0
-0.0,-0.0,-10.000000000000044,-0.0,-0.0,-0.0,70.00000000000031,240.00000000000108,230.00000000000102,160.0000000000007,50.00000000000022,-0.0
-0.0,-0.0,-0.0,-0.0,-0.0,-0.0,70.00000000000031,260.00000000000114,240.00000000000108,170.00000000000077,60.00000000000027,-0.0
-0.0,-0.0,-10.000000000000044,-0.0,-0.0,-10.000000000000044,70.00000000000031,270.0000000000012,260.00000000000114,190.00000000000085,70.00000000000031,-0.0
-0.0,-0.0,-10.000000000000044,-0.0,-0.0,-10.000000000000044,70.00000000000031,290.0000000000013,270.0000000000012,200.00000000000088,70.00000000000031,-0.0
-0.0,-0.0,-0.0,-0.0,-0.0,-0.0,70.00000000000031,300.0000000000013,290.0000000000013,220.00000000000097,80.00000000000036,-0.0
-0.0,-0.0,-0.0,-0.0,-0.0,-0.0,70.00000000000031,320.0000000000014,310.00000000000136,230.00000000000102,90.0000000000004,-0.0
-0.0,-0.0,-10.000000000000044,-0.0,-0.0,-0.0,70.00000000000031,340.00000000000153,330.0000000000015,250.0000000000011,100.00000000000044,10.000000000000044
-0.0,-0.0,-10.000000000000044,-0.0,-0.0,-0.0,70.00000000000031,350.00000000000153,350.00000000000153,270.0000000000012,110.00000000000048,20.00000000000009
-0.0,-0.0,-0.0,-0.0,-0.0,-0.0,70.00000000000031,370.00000000000165,370.00000000000165,290.0000000000013,130.00000000000057,20.00000000000009
-0.0,-0.0,-0.0,-0.0,-0.0,-0.0,70.00000000000031,390.0000000000017,390.0000000000017,300.0000000000013,140.00000000000063,30.000000000000135
-0.0,-0.0,-0.0,-0.0,-0.0,-0.0,60.00000000000027,410.0000000000018,400.00000000000176,320.0000000000014,150.00000000000065,40.00000000000018
-0.0,-0.0,-0.0,-0.0,-0.0,-0.0,60.00000000000027,420.0000000000019,420.0000000000019,340.00000000000153,170.00000000000077,50.00000000000022
-0.0,-0.0,-0.0,-0.0,-0.0,-0.0,60.00000000000027,440.00000000000193,440.00000000000193,360.0000000000016,180.0000000000008,60.00000000000027
-0.0,-0.0,-0.0,-0.0,-0.0,-0.0,60.00000000000027,450.000000000002,460.00000000000205,380.0000000000017,200.00000000000088,70.00000000000031
-0.0,-0.0,-0.0,-0.0,-0.0,-0.0,50.00000000000022,470.0000000000021,470.0000000000021,390.0000000000017,210.00000000000094,90.0000000000004
-0.0,-0.0,-0.0,-0.0,-0.0,-0.0,50.00000000000022,480.00000000000216,480.00000000000216,410.0000000000018,220.00000000000097,100.00000000000044
-0.0,-0.0,-0.0,-0.0,-0.0,-0.0,40.00000000000018,480.00000000000216,490.00000000000216,420.0000000000019,240.00000000000108,110.00000000000048
-0.0,-0.0,-0.0,-0.0,-0.0,-0.0,40.00000000000018,490.00000000000216,500.0000000000022,430.00000000000193,250.0000000000011,120.00000000000054
-0.0,-0.0,-0.0,-0.0,-0.0,-0.0,30.000000000000135,490.00000000000216,500.0000000000022,430.00000000000193,260.00000000000114,130.00000000000057
-0.0,-0.0,-0.0,-0.0,-0.0,-0.0,20.00000000000009,480.00000000000216,500.0000000000022,440.00000000000193,270.0000000000012,140.00000000000063
-0.0,-0.0,-0.0,-0.0,-0.0,-0.0,20.00000000000009,480.00000000000216,500.0000000000022,440.00000000000193,280.00000000000125,150.00000000000065
-0.0,-0.0,-0.0,-0.0,-0.0,-0.0,10.000000000000044,470.0000000000021,480.00000000000216,430.00000000000193,290.0000000000013,160.0000000000007
-0.0,-0.0,-0.0,-0.0,-0.0,-0.0,10.000000000000044,450.000000000002,470.0000000000021,420.0000000000019,290.0000000000013,170.00000000000077
-0.0,-0.0,-0.0,-0.0,-0.0,-0.0,-0.0,430.00000000000193,450.000000000002,420.0000000000019,290.0000000000013,180.0000000000008
-0.0,-0.0,-0.0,-0.0,-0.0,-0.0,-0.0,410.0000000000018,430.00000000000193,400.00000000000176,290.0000000000013,180.0000000000008
-0.0,-0.0,-0.0,-0.0,-0.0,-0.0,-0.0,390.0000000000017,410.0000000000018,380.0000000000017,290.0000000000013,190.00000000000085
-0.0,-0.0,-0.0,-0.0,-0.0,-0.0,-0.0,370.00000000000165,380.0000000000017,360.0000000000016,280.00000000000125,180.0000000000008
-0.0,-0.0,-0.0,-0.0,-0.0,-0.0,-0.0,340.00000000000153,350.00000000000153,330.0000000000015,270.0000000000012,180.0000000000008
-0.0,-0.0,-0.0,-0.0,-0.0,-0.0,-0.0,310.00000000000136,320.0000000000014,310.00000000000136,250.0000000000011,170.00000000000077
-0.0,-0.0,-0.0,-0.0,-0.0,-0.0,-0.0,280.00000000000125,290.0000000000013,280.00000000000125,230.00000000000102,160.0000000000007
-0.0,-0.0,-0.0,-0.0,-0.0,-0.0,-0.0,250.0000000000011,250.0000000000011,240.00000000000108,210.00000000000094,150.00000000000065
-0.0,-0.0,-0.0,-0.0,-0.0,-0.0,-0.0,220.00000000000097,220.00000000000097,210.00000000000094,190.00000000000085,140.00000000000063
-0.0,-0.0,-0.0,-0.0,-0.0,-0.0,-0.0,190.00000000000085,190.00000000000085,190.00000000000085,170.00000000000077,120.00000000000054
-0.0,-0.0,-0.0,-0.0,-0.0,-0.0,-0.0,160.0000000000007,160.0000000000007,160.0000000000007,150.00000000000065,110.00000000000048
-0.0,-0.0,-0.0,-0.0,-0.0,-0.0,-0.0,130.00000000000057,130.00000000000057,130.00000000000057,130.00000000000057,90.0000000000004
-0.0,-0.0,-0.0,-0.0,-0.0,-0.0,-0.0,110.00000000000048,110.00000000000048,110.00000000000048,110.00000000000048,80.00000000000036
-10.000000000000044,-0.0,-0.0,-0.0,-0.0,-0.0,-0.0,90.0000000000004,90.0000000000004,90.0000000000004,90.0000000000004,70.00000000000031
-10.000000000000044,-0.0,-0.0,10.000000000000044,-10.000000000000044,-0.0,-0.0,80.00000000000036,70.00000000000031,70.00000000000031,80.00000000000036,60.00000000000027
-10.000000000000044,-0.0,-0.0,-0.0,-10.000000000000044,-0.0,-0.0,60.00000000000027,60.00000000000027,50.00000000000022,60.00000000000027,40.00000000000018
-10.000000000000044,-0.0,-0.0,-0.0,-10.000000000000044,-0.0,-0.0,50.00000000000022,50.00000000000022,40.00000000000018,50.00000000000022,30.000000000000135
-10.000000000000044,-0.0,-0.0,-0.0,-10.000000000000044,-0.0,-0.0,40.00000000000018,40.00000000000018,30.000000000000135,40.00000000000018,30.000000000000135
-10.000000000000044,-0.0,-0.0,10.000000000000044,-10.000000000000044,-0.0,-0.0,30.000000000000135,30.000000000000135,20.00000000000009,30.000000000000135,20.00000000000009
-10.000000000000044,-0.0,-0.0,-0.0,-0.0,-0.0,-0.0,30.000000000000135,20.00000000000009,20.00000000000009,20.00000000000009,10.000000000000044
-10.000000000000044,-0.0,-0.0,-0.0,-0.0,-0.0,-0.0,20.00000000000009,20.00000000000009,10.000000000000044,20.00000000000009,10.000000000000044
-10.000000000000044,-0.0,-0.0,-0.0,-0.0,-0.0,-0.0,10.000000000000044,10.000000000000044,10.000000000000044,10.000000000000044,-0.0
-10.000000000000044,-0.0,-0.0,-0.0,-0.0,-0.0,-0.0,10.000000000000044,10.000000000000044,10.000000000000044,10.000000000000044,-0.0
-0.0,-0.0,-0.0,-0.0,-0.0,-0.0,-0.0,10.000000000000044,10.000000000000044,-0.0,-0.0,-0.0
-0.0,-0.0,-0.0,-0.0,-0.0,-0.0,-0.0,10.000000000000044,10.000000000000044,-0.0,10.000000000000044,-0.0
-10.000000000000044,-0.0,-0.0,-0.0,-0.0,-0.0,-0.0,-0.0,10.000000000000044,-0.0,-0.0,-0.0
-10.000000000000044,-0.0,-0.0,-0.0,-0.0,-0.0,-0.0,-0.0,-0.0,-0.0,-0.0,-0.0
-10.000000000000044,-0.0,-0.0,-0.0,-0.0,-0.0,-0.0,-0.0,-0.0,-0.0,-0.0,-0.0
-10.000000000000044,-0.0,-0.0,10.000000000000044,-10.000000000000044,-0.0,-0.0,-0.0,-0.0,-0.0,-0.0,-0.0
-10.000000000000044,-0.0,10.000000000000044,10.000000000000044,-10.000000000000044,-0.0,-0.0,-0.0,-0.0,-0.0,-0.0,-0.0
-10.000000000000044,-0.0,10.000000000000044,10.000000000000044,-10.000000000000044,-0.0,-0.0,-0.0,-0.0,-0.0,-0.0,-0.0
-10.000000000000044,-0.0,-0.0,10.000000000000044,-10.000000000000044,-0.0,-0.0,-0.0,-0.0,-0.0,-0.0,-0.0
-10.000000000000044,-0.0,-0.0,10.000000000000044,-10.000000000000044,-0.0,-0.0,-0.0,-0.0,-0.0,-0.0,-0.0
-10.000000000000044,-0.0,-0.0,10.000000000000044,-10.000000000000044,-0.0,-0.0,-0.0,-0.0,-0.0,-0.0,-0.0
-10.000000000000044,-0.0,-0.0,10.000000000000044,-10.000000000000044,-0.0,-0.0,-0.0,-0.0,-0.0,-0.0,-0.0
-20.00000000000009,-10.000000000000044,-0.0,10.000000000000044,-10.000000000000044,-0.0,-0.0,-0.0,-0.0,-0.0,-0.0,-0.0
-20.00000000000009,-10.000000000000044,-0.0,10.000000000000044,-10.000000000000044,-0.0,-0.0,-0.0,-0.0,-0.0,-0.0,-0.0
-20.00000000000009,-10.000000000000044,-0.0,10.000000000000044,-10.000000000000044,-0.0,-0.0,-0.0,-0.0,-0.0,-0.0,-0.0
-10.000000000000044,-10.000000000000044,-0.0,10.000000000000044,-10.000000000000044,-0.0,-0.0,-0.0,-0.0,-0.0,-0.0,-0.0
-10.000000000000044,-0.0,-0.0,10.000000000000044,-10.000000000000044,-0.0,-0.0,-0.0,-0.0,-0.0,-0.0,-0.0
-20.00000000000009,-0.0,10.000000000000044,10.000000000000044,-10.000000000000044,-0.0,-0.0,-0.0,-0.0,-0.0,-0.0,-0.0
-10.000000000000044,-0.0,10.000000000000044,-0.0,-10.000000000000044,-0.0,-0.0,-0.0,-0.0,-0.0,-0.0,-0.0
-10.000000000000044,-0.0,-0.0,-0.0,-10.000000000000044,-0.0,-0.0,-0.0,10.000000000000044,-0.0,-0.0,-0.0
-10.000000000000044,-0.0,-0.0,-0.0,-10.000000000000044,-0.0,-0.0,-0.0,10.000000000000044,10.000000000000044,-0.0,-0.0
-10.000000000000044,-0.0,10.000000000000044,-0.0,-10.000000000000044,-0.0,-0.0,-0.0,10.000000000000044,10.000000000000044,-0.0,-0.0
-10.000000000000044,-0.0,10.000000000000044,-0.0,-10.000000000000044,-0.0,-0.0,-0.0,10.000000000000044,10.000000000000044,-0.0,-0.0
-10.000000000000044,-0.0,-0.0,-0.0,-10.000000000000044,-0.0,-0.0,-0.0,20.00000000000009,10.000000000000044,-0.0,-0.0
-10.000000000000044,-0.0,-0.0,-0.0,-10.000000000000044,-0.0,-0.0,-0.0,20.00000000000009,10.000000000000044,-0.0,-0.0
-10.000000000000044,-0.0,10.000000000000044,-0.0,-10.000000000000044,-0.0,-0.0,-0.0,20.00000000000009,10.000000000000044,-0.0,-0.0
-10.000000000000044,-0.0,10.000000000000044,-0.0,-10.000000000000044,-0.0,-0.0,10.000000000000044,20.00000000000009,10.000000000000044,-0.0,-0.0
-10.000000000000044,-0.0,10.000000000000044,-0.0,-10.000000000000044,10.000000000000044,-0.0,10.000000000000044,20.00000000000009,20.00000000000009,-0.0,-0.0
-0.0,-0.0,20.00000000000009,-0.0,-10.000000000000044,10.000000000000044,-0.0,10.000000000000044,20.00000000000009,10.000000000000044,-0.0,-0.0
-0.0,10.000000000000044,20.00000000000009,-10.000000000000044,-10.000000000000044,20.00000000000009,-0.0,10.000000000000044,20.00000000000009,10.000000000000044,-0.0,-0.0
-0.0,20.00000000000009,40.00000000000018,-20.00000000000009,-20.00000000000009,30.000000000000135,-0.0,10.000000000000044,20.00000000000009,10.000000000000044,-0.0,-0.0
-0.0,30.000000000000135,40.00000000000018,-20.00000000000009,-20.00000000000009,40.00000000000018,-0.0,10.000000000000044,20.00000000000009,10.000000000000044,-0.0,-0.0
-0.0,40.00000000000018,50.00000000000022,-30.000000000000135,-20.00000000000009,50.00000000000022,-0.0,10.000000000000044,20.00000000000009,10.000000000000044,-0.0,-0.0
-0.0,50.00000000000022,60.00000000000027,-40.00000000000018,-30.000000000000135,60.00000000000027,-0.0,10.000000000000044,20.00000000000009,10.000000000000044,-0.0,-0.0
-0.0,70.00000000000031,70.00000000000031,-40.00000000000018,-30.000000000000135,70.00000000000031,-0.0,10.000000000000044,20.00000000000009,10.000000000000044,-0.0,-0.0
10.000000000000044,80.00000000000036,70.00000000000031,-50.00000000000022,-20.00000000000009,80.00000000000036,-0.0,10.000000000000044,20.00000000000009,10.000000000000044,-0.0,-0.0
20.00000000000009,80.00000000000036,70.00000000000031,-60.00000000000027,-20.00000000000009,80.00000000000036,-0.0,10.000000000000044,10.000000000000044,10.000000000000044,-0.0,-0.0
20.00000000000009,100.00000000000044,80.00000000000036,-70.00000000000031,-20.00000000000009,100.00000000000044,-0.0,10.000000000000044,20.00000000000009,10.000000000000044,-0.0,-0.0
30.000000000000135,110.00000000000048,80.00000000000036,-80.00000000000036,-20.00000000000009,100.00000000000044,-0.0,10.000000000000044,20.00000000000009,10.000000000000044,-0.0,-0.0
50.00000000000022,120.00000000000054,80.00000000000036,-90.0000000000004,-10.000000000000044,100.00000000000044,-0.0,10.000000000000044,10.000000000000044,10.000000000000044,-0.0,-0.0
50.00000000000022,130.00000000000057,80.00000000000036,-100.00000000000044,-10.000000000000044,110.00000000000048,-0.0,10.000000000000044,10.000000000000044,10.000000000000044,-0.0,-0.0
60.00000000000027,140.00000000000063,80.00000000000036,-100.00000000000044,-10.000000000000044,110.00000000000048,-0.0,10.000000000000044,10.000000000000044,10.000000000000044,-0.0,-0.0
60.00000000000027,150.00000000000065,80.00000000000036,-110.00000000000048,-0.0,120.00000000000054,-0.0,10.000000000000044,10.000000000000044,-0.0,-0.0,-0.0
70.00000000000031,150.00000000000065,80.00000000000036,-110.00000000000048,-0.0,110.00000000000048,-0.0,-0.0,10.000000000000044,-0.0,-0.0,-0.0
70.00000000000031,150.00000000000065,80.00000000000036,-110.00000000000048,-0.0,110.00000000000048,-0.0,-0.0,-0.0,-0.0,-0.0,-0.0
60.00000000000027,150.00000000000065,70.00000000000031,-100.00000000000044,-0.0,100.00000000000044,-0.0,-0.0,-0.0,-0.0,-0.0,-0.0
60.00000000000027,140.00000000000063,60.00000000000027,-90.0000000000004,-0.0,90.0000000000004,-0.0,-0.0,-0.0,-0.0,-0.0,-0.0
50.00000000000022,120.00000000000054,60.00000000000027,-80.00000000000036,-0.0,80.00000000000036,-0.0,-0.0,-0.0,-0.0,-10.000000000000044,-0.0
40.00000000000018,110.00000000000048,50.00000000000022,-70.00000000000031,-0.0,70.00000000000031,-0.0,-0.0,-0.0,-0.0,-10.000000000000044,-0.0
20.00000000000009,90.0000000000004,40.00000000000018,-50.00000000000022,-0.0,50.00000000000022,-0.0,-0.0,-0.0,-0.0,-10.000000000000044,-0.0
-0.0,70.00000000000031,40.00000000000018,-30.000000000000135,-10.000000000000044,40.00000000000018,-0.0,-0.0,-10.000000000000044,-10.000000000000044,-10.000000000000044,-0.0
-0.0,50.00000000000022,30.000000000000135,-20.00000000000009,-10.000000000000044,30.000000000000135,-0.0,-10.000000000000044,-10.000000000000044,-10.000000000000044,-10.000000000000044,-10.000000000000044
-10.000000000000044,30.000000000000135,30.000000000000135,-10.000000000000044,-20.00000000000009,20.00000000000009,-0.0,-10.000000000000044,-10.000000000000044,-10.000000000000044,-10.000000000000044,-10.000000000000044
-20.00000000000009,10.000000000000044,30.000000000000135,-0.0,-30.000000000000135,20.00000000000009,-0.0,-10.000000000000044,-10.000000000000044,-10.000000000000044,-20.00000000000009,-0.0
-30.000000000000135,-0.0,30.000000000000135,10.000000000000044,-30.000000000000135,10.000000000000044,-0.0,-10.000000000000044,-10.000000000000044,-20.00000000000009,-20.00000000000009,-0.0
-30.000000000000135,-0.0,30.000000000000135,10.000000000000044,-30.000000000000135,10.000000000000044,-0.0,-10.000000000000044,-10.000000000000044,-20.00000000000009,-20.00000000000009,-0.0
-40.00000000000018,-0.0,20.00000000000009,20.00000000000009,-30.000000000000135,-0.0,-0.0,-10.000000000000044,-10.000000000000044,-20.00000000000009,-20.00000000000009,-0.0
-40.00000000000018,-10.000000000000044,30.000000000000135,20.00000000000009,-30.000000000000135,-0.0,-0.0,-10.000000000000044,-10.000000000000044,-20.00000000000009,-20.00000000000009,-0.0
-40.00000000000018,-10.000000000000044,20.00000000000009,20.00000000000009,-30.000000000000135,-0.0,-0.0,-10.000000000000044,-10.000000000000044,-20.00000000000009,-20.00000000000009,-0.0
-40.00000000000018,-10.000000000000044,20.00000000000009,20.00000000000009,-30.000000000000135,-0.0,-0.0,-10.000000000000044,-10.000000000000044,-20.00000000000009,-20.00000000000009,-0.0
-40.00000000000018,-10.000000000000044,20.00000000000009,30.000000000000135,-30.000000000000135,-0.0,-0.0,-10.000000000000044,-10.000000000000044,-20.00000000000009,-20.00000000000009,-0.0
-40.00000000000018,-10.000000000000044,20.00000000000009,30.000000000000135,-30.000000000000135,-0.0,-0.0,-10.000000000000044,-10.000000000000044,-20.00000000000009,-20.00000000000009,-0.0
-40.00000000000018,-10.000000000000044,20.00000000000009,20.00000000000009,-30.000000000000135,-0.0,-0.0,-10.000000000000044,-10.000000000000044,-20.00000000000009,-20.00000000000009,-0.0
-50.00000000000022,-10.000000000000044,20.00000000000009,30.000000000000135,-30.000000000000135,-0.0,-0.0,-10.000000000000044,-10.000000000000044,-20.00000000000009,-30.000000000000135,-10.000000000000044
-50.00000000000022,-20.00000000000009,20.00000000000009,30.000000000000135,-40.00000000000018,-0.0,-0.0,-10.000000000000044,-10.000000000000044,-20.00000000000009,-30.000000000000135,-10.000000000000044
-50.00000000000022,-20.00000000000009,30.000000000000135,30.000000000000135,-40.00000000000018,-0.0,-0.0,-10.000000000000044,-20.00000000000009,-20.00000000000009,-30.000000000000135,-10.000000000000044
-50.00000000000022,-20.00000000000009,30.000000000000135,30.000000000000135,-40.00000000000018,-0.0,-0.0,-10.000000000000044,-20.00000000000009,-20.00000000000009,-30.000000000000135,-10.000000000000044
-60.00000000000027,-20.00000000000009,30.000000000000135,40.00000000000018,-40.00000000000018,-0.0,-0.0,-10.000000000000044,-20.00000000000009,-20.00000000000009,-30.000000000000135,-10.000000000000044
-70.00000000000031,-20.00000000000009,30.000000000000135,40.00000000000018,-50.00000000000022,-0.0,-0.0,-10.000000000000044,-20.00000000000009,-20.00000000000009,-30.000000000000135,-10.000000000000044
-80.00000000000036,-30.000000000000135,30.000000000000135,50.00000000000022,-60.00000000000027,-0.0,-0.0,-10.000000000000044,-20.00000000000009,-20.00000000000009,-30.000000000000135,-10.000000000000044
-90.0000000000004,-40.00000000000018,30.000000000000135,70.00000000000031,-60.00000000000027,-10.000000000000044,-0.0,-10.000000000000044,-20.00000000000009,-20.00000000000009,-30.000000000000135,-10.000000000000044
-100.00000000000044,-60.00000000000027,20.00000000000009,80.00000000000036,-60.00000000000027,-20.00000000000009,-0.0,-10.000000000000044,-20.00000000000009,-20.00000000000009,-30.000000000000135,-10.000000000000044
-120.00000000000054,-80.00000000000036,10.000000000000044,100.00000000000044,-70.00000000000031,-40.00000000000018,-0.0,-10.000000000000044,-20.00000000000009,-20.00000000000009,-30.000000000000135,-10.000000000000044
-120.00000000000054,-100.00000000000044,-0.0,110.00000000000048,-70.00000000000031,-50.00000000000022,-0.0,-10.000000000000044,-20.00000000000009,-20.00000000000009,-20.00000000000009,-0.0
-120.00000000000054,-120.00000000000054,-0.0,110.00000000000048,-60.00000000000027,-60.00000000000027,10.000000000000044,-10.000000000000044,-20.00000000000009,-20.00000000000009,-20.00000000000009,-0.0
