I,II,III,aVR,aVL,aVF,V1,V2,V3,V4,V5,V6
-440.00000000000193,-190.00000000000085,220.00000000000097,320.0000000000014,-330.0000000000015,10.000000000000044,-0.0,-0.0,-10.000000000000044,-10.000000000000044,-0.0,-0.0
-560.0000000000025,-220.00000000000097,320.0000000000014,380.0000000000017,-440.00000000000193,50.00000000000022,-0.0,-10.000000000000044,-0.0,-10.000000000000044,-10.000000000000044,-10.000000000000044
-630.0000000000028,-220.00000000000097,410.0000000000018,420.0000000000019,-520.0000000000023,100.00000000000044,-0.0,-10.000000000000044,-0.0,-10.000000000000044,-10.000000000000044,-10.000000000000044
-640.0000000000028,-210.00000000000094,460.00000000000205,400.00000000000176,-560.0000000000025,140.00000000000063,-0.0,-10.000000000000044,-0.0,-20.00000000000009,-20.00000000000009,-10.000000000000044
-590.0000000000026,-170.00000000000077,470.0000000000021,350.00000000000153,-530.0000000000024,170.00000000000077,-0.0,-10.000000000000044,-0.0,-20.00000000000009,-20.00000000000009,-10.000000000000044
-500.0000000000022,-120.00000000000054,440.00000000000193,270.0000000000012,-470.0000000000021,190.00000000000085,-0.0,-10.000000000000044,-0.0,-20.00000000000009,-20.00000000000009,-10.000000000000044
-370.00000000000165,-50.00000000000022,370.00000000000165,170.00000000000077,-370.00000000000165,190.00000000000085,-0.0,-10.000000000000044,-0.0,-20.00000000000009,-20.00000000000009,-10.000000000000044
-230.00000000000102,10.000000000000044,290.0000000000013,70.00000000000031,-260.00000000000114,180.0000000000008,-0.0,-10.000000000000044,-0.0,-20.00000000000009,-20.00000000000009,-10.000000000000044
-90.0000000000004,60.00000000000027,200.00000000000088,-10.000000000000044,-150.00000000000065,150.00000000000065,-0.0,-10.000000000000044,-0.0,-10.000000000000044,-20.00000000000009,-10.000000000000044
10.000000000000044,110.00000000000048,110.00000000000048,-80.00000000000036,-60.00000000000027,120.00000000000054,-0.0,-0.0,-0.0,-10.000000000000044,-10.000000000000044,-10.000000000000044
90.0000000000004,130.00000000000057,40.00000000000018,-120.00000000000054,10.000000000000044,90.0000000000004,-0.0,-0.0,-0.0,-0.0,-10.000000000000044,-0.0
140.00000000000063,140.00000000000063,-10.000000000000044,-140.00000000000063,60.00000000000027,60.00000000000027,-0.0,-0.0,-0.0,-0.0,-0.0,-0.0
160.0000000000007,130.00000000000057,-40.00000000000018,-140.00000000000063,90.0000000000004,30.000000000000135,-0.0,-0.0,10.000000000000044,-0.0,-0.0,-0.0
160.0000000000007,110.00000000000048,-50.00000000000022,-130.00000000000057,100.00000000000044,20.00000000000009,-0.0,10.000000000000044,10.000000000000044,10.000000000000044,-0.0,-0.0
140.00000000000063,100.00000000000044,-50.00000000000022,-110.00000000000048,90.0000000000004,10.000000000000044,10.000000000000044,10.000000000000044,10.000000000000044,10.000000000000044,-0.0,-0.0
110.00000000000048,80.00000000000036,-50.00000000000022,-90.0000000000004,80.00000000000036,-0.0,10.000000000000044,20.00000000000009,20.00000000000009,10.000000000000044,-0.0,-0.0
80.00000000000036,60.00000000000027,-40.00000000000018,-70.00000000000031,60.00000000000027,-0.0,20.00000000000009,20.00000000000009,20.00000000000009,10.000000000000044,-0.0,10.000000000000044
60.00000000000027,40.00000000000018,-30.000000000000135,-50.00000000000022,40.00000000000018,-0.0,20.00000000000009,30.000000000000135,20.00000000000009,10.000000000000044,-0.0,10.000000000000044
40.00000000000018,20.00000000000009,-30.000000000000135,-30.000000000000135,40.00000000000018,-0.0,30.000000000000135,30.000000000000135,20.00000000000009,10.000000000000044,-0.0,10.000000000000044
40.00000000000018,10.000000000000044,-30.000000000000135,-20.00000000000009,30.000000000000135,-10.000000000000044,30.000000000000135,30.000000000000135,20.00000000000009,10.000000000000044,10.000000000000044,10.000000000000044
40.00000000000018,-0.0,-30.000000000000135,-20.00000000000009,30.000000000000135,-10.000000000000044,20.00000000000009,30.000000000000135,20.00000000000009,10.000000000000044,10.000000000000044,10.000000000000044
40.00000000000018,-0.0,-30.000000000000135,-20.00000000000009,30.000000000000135,-10.000000000000044,20.00000000000009,30.000000000000135,20.00000000000009,10.000000000000044,10.000000000000044,10.000000000000044
30.000000000000135,-0.0,-40.00000000000018,-10.000000000000044,30.000000000000135,-10.000000000000044,10.000000000000044,20.00000000000009,20.00000000000009,10.000000000000044,10.000000000000044,20.00000000000009
30.000000000000135,-0.0,-30.000000000000135,-10.000000000000044,30.000000000000135,-20.00000000000009,-0.0,10.000000000000044,10.000000000000044,10.000000000000044,10.000000000000044,20.00000000000009
20.00000000000009,-0.0,-30.000000000000135,-0.0,30.000000000000135,-20.00000000000009,-10.000000000000044,10.000000000000044,10.000000000000044,10.000000000000044,20.00000000000009,20.00000000000009
20.00000000000009,-0.0,-30.000000000000135,-0.0,20.00000000000009,-20.00000000000009,-20.00000000000009,-0.0,-0.0,10.000000000000044,20.00000000000009,20.00000000000009
20.00000000000009,-10.000000000000044,-30.000000000000135,-0.0,20.00000000000009,-20.00000000000009,-30.000000000000135,-0.0,-0.0,10.000000000000044,20.00000000000009,30.000000000000135
20.00000000000009,-10.000000000000044,-30.000000000000135,-0.0,20.00000000000009,-10.000000000000044,-30.000000000000135,-0.0,-0.0,10.000000000000044,20.00000000000009,30.000000000000135
20.00000000000009,-0.0,-20.00000000000009,-10.000000000000044,20.00000000000009,-10.000000000000044,-30.000000000000135,-0.0,-0.0,10.000000000000044,20.00000000000009,30.000000000000135
20.00000000000009,-0.0,-20.00000000000009,-10.000000000000044,20.00000000000009,-0.0,-30.000000000000135,-0.0,-10.000000000000044,10.000000000000044,10.000000000000044,30.000000000000135
20.00000000000009,-0.0,-20.00000000000009,-10.000000000000044,20.00000000000009,-0.0,-30.000000000000135,-0.0,-20.00000000000009,10.000000000000044,10.000000000000044,20.00000000000009
20.00000000000009,-0.0,-20.00000000000009,-10.000000000000044,20.00000000000009,-0.0,-30.000000000000135,-10.000000000000044,-30.000000000000135,-0.0,-0.0,20.00000000000009
10.000000000000044,-0.0,-10.000000000000044,-10.000000000000044,10.000000000000044,-0.0,-20.00000000000009,-10.000000000000044,-40.00000000000018,-0.0,-0.0,10.000000000000044
10.000000000000044,-0.0,-10.000000000000044,-10.000000000000044,10.000000000000044,-0.0,-20.00000000000009,-20.00000000000009,-50.00000000000022,-10.000000000000044,-0.0,-0.0
10.000000000000044,-0.0,-0.0,-10.000000000000044,-0.0,-0.0,-20.00000000000009,-30.000000000000135,-60.00000000000027,-20.00000000000009,-20.00000000000009,-0.0
10.000000000000044,-0.0,-0.0,-10.000000000000044,-0.0,-0.0,-20.00000000000009,-40.00000000000018,-70.00000000000031,-30.000000000000135,-30.000000000000135,-10.000000000000044
-0.0,-0.0,-0.0,-0.0,-0.0,-0.0,-20.00000000000009,-40.00000000000018,-80.00000000000036,-40.00000000000018,-40.00000000000018,-20.00000000000009
-0.0,-0.0,-0.0,-0.0,-0.0,-0.0,-20.00000000000009,-50.00000000000022,-80.00000000000036,-40.00000000000018,-50.00000000000022,-30.000000000000135
-10.000000000000044,-0.0,-0.0,-0.0,-0.0,-0.0,-20.00000000000009,-60.00000000000027,-80.00000000000036,-50.00000000000022,-50.00000000000022,-30.000000000000135
-20.00000000000009,-0.0,-0.0,10.000000000000044,-10.000000000000044,-0.0,-20.00000000000009,-60.00000000000027,-80.00000000000036,-50.00000000000022,-50.00000000000022,-30.000000000000135
-30.000000000000135,-10.000000000000044,10.000000000000044,20.00000000000009,-20.00000000000009,-0.0,-20.00000000000009,-60.00000000000027,-80.00000000000036,-50.00000000000022,-50.00000000000022,-30.000000000000135
-40.00000000000018,-10.000000000000044,20.00000000000009,20.00000000000009,-30.000000000000135,-0.0,-20.00000000000009,-70.00000000000031,-80.00000000000036,-50.00000000000022,-50.00000000000022,-30.000000000000135
-40.00000000000018,-10.000000000000044,20.00000000000009,20.00000000000009,-30.000000000000135,-0.0,-20.00000000000009,-70.00000000000031,-80.00000000000036,-50.00000000000022,-50.00000000000022,-30.000000000000135
-40.00000000000018,-10.000000000000044,30.000000000000135,20.00000000000009,-40.00000000000018,-0.0,-20.00000000000009,-70.00000000000031,-80.00000000000036,-50.00000000000022,-50.00000000000022,-30.000000000000135
-50.00000000000022,-10.000000000000044,30.000000000000135,20.00000000000009,-40.00000000000018,10.000000000000044,-10.000000000000044,-60.00000000000027,-80.00000000000036,-50.00000000000022,-50.00000000000022,-30.000000000000135
-50.00000000000022,-0.0,40.00000000000018,30.000000000000135,-50.00000000000022,10.000000000000044,-10.000000000000044,-60.00000000000027,-70.00000000000031,-50.00000000000022,-50.00000000000022,-30.000000000000135
-70.00000000000031,-0.0,50.00000000000022,30.000000000000135,-60.00000000000027,20.00000000000009,-0.0,-50.00000000000022,-50.00000000000022,-20.00000000000009,-50.00000000000022,-40.00000000000018
-80.00000000000036,-10.000000000000044,60.00000000000027,40.00000000000018,-70.00000000000031,20.00000000000009,-0.0,-20.00000000000009,-20.00000000000009,10.000000000000044,-40.00000000000018,-40.00000000000018
-90.0000000000004,-10.000000000000044,70.00000000000031,50.00000000000022,-80.00000000000036,20.00000000000009,10.000000000000044,10.000000000000044,30.000000000000135,80.00000000000036,-10.000000000000044,-20.00000000000009
-100.00000000000044,-10.000000000000044,80.00000000000036,50.00000000000022,-90.0000000000004,30.000000000000135,10.000000000000044,50.00000000000022,100.00000000000044,180.0000000000008,40.00000000000018,20.00000000000009
-110.00000000000048,-10.000000000000044,90.0000000000004,60.00000000000027,-100.00000000000044,30.000000000000135,-0.0,110.00000000000048,190.00000000000085,300.0000000000013,140.00000000000063,90.0000000000004
-120.00000000000054,-10.000000000000044,110.00000000000048,60.00000000000027,-120.00000000000054,50.00000000000022,-20.00000000000009,150.00000000000065,260.00000000000114,420.0000000000019,290.0000000000013,210.00000000000094
-140.00000000000063,-0.0,120.00000000000054,70.00000000000031,-140.00000000000063,60.00000000000027,-80.00000000000036,180.0000000000008,310.00000000000136,520.0000000000023,460.00000000000205,350.00000000000153
-150.00000000000065,-0.0,140.00000000000063,70.00000000000031,-150.00000000000065,70.00000000000031,-150.00000000000065,160.0000000000007,310.00000000000136,570.0000000000025,620.0000000000027,500.0000000000022
-160.0000000000007,-0.0,160.0000000000007,80.00000000000036,-290.0000000000013,80.00000000000036,-230.00000000000102,90.0000000000004,240.00000000000108,520.0000000000023,740.0000000000033,630.0000000000028
-170.00000000000077,-0.0,180.0000000000008,80.00000000000036,-290.0000000000013,90.0000000000004,-320.0000000000014,-30.000000000000135,110.00000000000048,400.00000000000176,780.0000000000034,710.0000000000032
-180.0000000000008,-0.0,190.00000000000085,80.00000000000036,-290.0000000000013,100.00000000000044,-390.0000000000017,-190.00000000000085,-60.00000000000027,200.00000000000088,730.0000000000033,720.0000000000032
-190.00000000000085,10.000000000000044,210.00000000000094,80.00000000000036,-290.0000000000013,110.00000000000048,-440.00000000000193,-400.00000000000176,-270.0000000000012,-20.00000000000009,600.0000000000026,660.000000000003
-200.00000000000088,20.00000000000009,220.00000000000097,80.00000000000036,-290.0000000000013,120.00000000000054,-480.00000000000216,-600.0000000000026,-470.0000000000021,-250.0000000000011,410.0000000000018,550.0000000000024
-210.00000000000094,20.00000000000009,230.00000000000102,80.00000000000036,-220.00000000000097,120.00000000000054,-490.00000000000216,-500.0000000000022,-650.0000000000028,-470.0000000000021,200.00000000000088,400.00000000000176
-220.00000000000097,20.00000000000009,240.00000000000108,90.0000000000004,-230.00000000000102,130.00000000000057,-470.0000000000021,-500.0000000000022,-770.0000000000034,-630.0000000000028,-20.00000000000009,250.0000000000011
-220.00000000000097,20.00000000000009,250.0000000000011,100.00000000000044,-230.00000000000102,130.00000000000057,-440.00000000000193,-500.0000000000022,-820.0000000000036,-720.0000000000032,-200.00000000000088,100.00000000000044
-230.00000000000102,20.00000000000009,250.0000000000011,100.00000000000044,-240.00000000000108,130.00000000000057,-390.0000000000017,-500.0000000000022,-810.0000000000036,-750.0000000000033,-340.00000000000153,-20.00000000000009
-230.00000000000102,20.00000000000009,250.0000000000011,100.00000000000044,-240.00000000000108,130.00000000000057,-340.00000000000153,-500.0000000000022,-740.0000000000033,-710.0000000000032,-430.00000000000193,-110.00000000000048
-220.00000000000097,20.00000000000009,250.0000000000011,90.0000000000004,-240.00000000000108,140.00000000000063,-280.00000000000125,-500.0000000000022,-640.0000000000028,-630.0000000000028,-460.00000000000205,-170.00000000000077
-220.00000000000097,20.00000000000009,250.0000000000011,90.0000000000004,-240.00000000000108,140.00000000000063,-220.00000000000097,-500.0000000000022,-510.0000000000023,-520.0000000000023,-440.00000000000193,-200.00000000000088
-210.00000000000094,30.000000000000135,250.0000000000011,80.00000000000036,-230.00000000000102,140.00000000000063,-160.0000000000007,-570.0000000000025,-370.00000000000165,-400.00000000000176,-380.0000000000017,-190.00000000000085
-210.00000000000094,30.000000000000135,240.00000000000108,80.00000000000036,-220.00000000000097,140.00000000000063,-120.00000000000054,-430.00000000000193,-250.0000000000011,-290.0000000000013,-310.00000000000136,-160.0000000000007
-200.00000000000088,30.000000000000135,230.00000000000102,70.00000000000031,-210.00000000000094,130.00000000000057,-80.00000000000036,-300.0000000000013,-150.00000000000065,-200.00000000000088,-240.00000000000108,-120.00000000000054
-190.00000000000085,30.000000000000135,210.00000000000094,70.00000000000031,-200.00000000000088,120.00000000000054,-50.00000000000022,-190.00000000000085,-80.00000000000036,-130.00000000000057,-180.0000000000008,-100.00000000000044
-170.00000000000077,30.000000000000135,200.00000000000088,70.00000000000031,-190.00000000000085,110.00000000000048,-30.000000000000135,-110.00000000000048,-30.000000000000135,-80.00000000000036,-130.00000000000057,-80.00000000000036
-160.0000000000007,20.00000000000009,180.0000000000008,60.00000000000027,-170.00000000000077,100.00000000000044,-10.000000000000044,-50.00000000000022,-0.0,-60.00000000000027,-100.00000000000044,-60.00000000000027
-150.00000000000065,20.00000000000009,160.0000000000007,60.00000000000027,-160.0000000000007,90.0000000000004,-0.0,-10.000000000000044,-0.0,-40.00000000000018,-80.00000000000036,-50.00000000000022
-130.00000000000057,10.000000000000044,140.00000000000063,50.00000000000022,-140.00000000000063,70.00000000000031,10.000000000000044,-0.0,10.000000000000044,-20.00000000000009,-60.00000000000027,-40.00000000000018
-120.00000000000054,10.000000000000044,120.00000000000054,50.00000000000022,-120.00000000000054,60.00000000000027,20.00000000000009,20.00000000000009,20.00000000000009,-10.000000000000044,-50.00000000000022,-30.000000000000135
-100.00000000000044,-0.0,100.00000000000044,40.00000000000018,-100.00000000000044,50.00000000000022,20.00000000000009,30.000000000000135,30.000000000000135,-0.0,-40.00000000000018,-30.000000000000135
-90.0000000000004,-0.0,80.00000000000036,40.00000000000018,-90.0000000000004,40.00000000000018,30.000000000000135,50.00000000000022,30.000000000000135,10.000000000000044,-30.000000000000135,-20.00000000000009
-70.00000000000031,-0.0,60.00000000000027,30.000000000000135,-70.00000000000031,30.000000000000135,30.000000000000135,60.00000000000027,40.00000000000018,20.00000000000009,-20.00000000000009,-20.00000000000009
-50.00000000000022,-0.0,50.00000000000022,20.00000000000009,-50.00000000000022,20.00000000000009,30.000000000000135,70.00000000000031,50.00000000000022,20.00000000000009,-10.000000000000044,-20.00000000000009
-40.00000000000018,-0.0,40.00000000000018,10.000000000000044,-40.00000000000018,20.00000000000009,40.00000000000018,80.00000000000036,50.00000000000022,30.000000000000135,-0.0,-10.000000000000044
-30.000000000000135,-0.0,20.00000000000009,-0.0,-30.000000000000135,10.000000000000044,40.00000000000018,90.0000000000004,70.00000000000031,40.00000000000018,-0.0,-10.000000000000044
-20.00000000000009,-0.0,20.00000000000009,-0.0,-20.00000000000009,10.000000000000044,40.00000000000018,90.0000000000004,80.00000000000036,50.00000000000022,-0.0,-10.000000000000044
-10.000000000000044,-0.0,10.000000000000044,-0.0,-10.000000000000044,-0.0,30.000000000000135,100.00000000000044,90.0000000000004,50.00000000000022,-0.0,-0.0
-0.0,-0.0,-0.0,-0.0,-0.0,-0.0,30.000000000000135,100.00000000000044,100.00000000000044,60.00000000000027,-0.0,-0.0
-0.0,-0.0,-0.0,-0.0,-0.0,-0.0,30.000000000000135,110.00000000000048,120.00000000000054,70.00000000000031,-0.0,-0.0
-0.0,-0.0,-0.0,-0.0,-0.0,-0.0,30.000000000000135,120.00000000000054,130.00000000000057,70.00000000000031,10.000000000000044,-0.0
-10.000000000000044,-0.0,-0.0,-0.0,-0.0,-0.0,30.000000000000135,130.00000000000057,150.00000000000065,80.00000000000036,10.000000000000044,-0.0
-10.000000000000044,-0.0,-0.0,-0.0,-0.0,-0.0,30.000000000000135,140.00000000000063,160.0000000000007,90.0000000000004,20.00000000000009,-0.0
-10.000000000000044,-10.000000000000044,-0.0,10.000000000000044,-0.0,-0.0,40.00000000000018,140.00000000000063,170.00000000000077,100.00000000000044,30.000000000000135,-0.0
-10.000000000000044,-10.000000000000044,-0.0,10.000000000000044,-0.0,-0.0,40.00000000000018,150.00000000000065,180.0000000000008,100.00000000000044,40.00000000000018,10.000000000000044
-0.0,-10.000000000000044,-0.0,-0.0,-0.0,-0.0,40.00000000000018,160.0000000000007,190.00000000000085,110.00000000000048,40.00000000000018,10.000000000000044
-0.0,-10.000000000000044,-0.0,-0.0,-0.0,-0.0,40.00000000000018,170.00000000000077,190.00000000000085,120.00000000000054,50.00000000000022,20.00000000000009
-0.0,-0.0,-0.0,-0.0,-0.0,-0.0,40.00000000000018,180.0000000000008,200.00000000000088,120.00000000000054,50.00000000000022,20.00000000000009
-0.0,-0.0,-0.0,-0.0,-0.0,-0.0,40.00000000000018,190.00000000000085,200.00000000000088,130.00000000000057,60.00000000000027,30.000000000000135
-10.000000000000044,-0.0,-0.0,-0.0,-0.0,-0.0,40.00000000000018,200.00000000000088,200.00000000000088,140.00000000000063,60.00000000000027,40.00000000000018
-10.000000000000044,-0.0,-0.0,10.000000000000044,-0.0,-0.0,40.00000000000018,210.00000000000094,200.00000000000088,160.0000000000007,70.00000000000031,40.00000000000018
-20.00000000000009,-10.000000000000044,-0.0,10.000000000000044,-10.000000000000044,-0.0,40.00000000000018,220.00000000000097,200.00000000000088,170.00000000000077,80.00000000000036,50.00000000000022
-20.00000000000009,-10.000000000000044,-0.0,20.00000000000009,-10.000000000000044,-0.0,40.00000000000018,240.00000000000108,200.00000000000088,190.00000000000085,90.0000000000004,60.00000000000027
-20.00000000000009,-20.00000000000009,-0.0,20.00000000000009,-10.000000000000044,-0.0,40.00000000000018,260.00000000000114,200.00000000000088,200.00000000000088,100.00000000000044,60.00000000000027
-30.000000000000135,-20.00000000000009,-0.0,20.00000000000009,-10.000000000000044,-10.000000000000044,40.00000000000018,280.00000000000125,200.00000000000088,220.00000000000097,110.00000000000048,70.00000000000031
-20.00000000000009,-20.00000000000009,-0.0,20.00000000000009,-10.000000000000044,-0.0,40.00000000000018,300.0000000000013,200.00000000000088,240.00000000000108,120.00000000000054,80.00000000000036
-20.00000000000009,-20.00000000000009,-0.0,20.00000000000009,-10.000000000000044,-0.0,50.00000000000022,320.0000000000014,210.00000000000094,260.00000000000114,130.00000000000057,90.0000000000004
-20.00000000000009,-20.00000000000009,-0.0,10.000000000000044,-10.000000000000044,-0.0,50.00000000000022,340.00000000000153,220.00000000000097,280.00000000000125,150.00000000000065,100.00000000000044
-10.000000000000044,-10.000000000000044,-0.0,10.000000000000044,-10.000000000000044,-0.0,50.00000000000022,360.0000000000016,230.00000000000102,300.0000000000013,170.00000000000077,120.00000000000054
-10.000000000000044,-10.000000000000044,-0.0,10.000000000000044,-10.000000000000044,-0.0,60.00000000000027,380.0000000000017,240.00000000000108,320.0000000000014,180.0000000000008,130.00000000000057
-10.000000000000044,-10.000000000000044,-0.0,-0.0,-0.0,-0.0,60.00000000000027,410.0000000000018,260.00000000000114,340.00000000000153,200.00000000000088,140.00000000000063
-0.0,-10.000000000000044,-0.0,-0.0,-0.0,-0.0,50.00000000000022,420.0000000000019,270.0000000000012,360.0000000000016,220.00000000000097,160.0000000000007
-0.0,-0.0,-0.0,-0.0,-0.0,-0.0,50.00000000000022,440.00000000000193,290.0000000000013,380.0000000000017,240.00000000000108,170.00000000000077
-0.0,-0.0,-0.0,-0.0,-0.0,-0.0,50.00000000000022,460.00000000000205,300.0000000000013,400.00000000000176,250.0000000000011,180.0000000000008
-0.0,-0.0,-0.0,-0.0,-0.0,-0.0,50.00000000000022,470.0000000000021,320.0000000000014,410.0000000000018,260.00000000000114,200.00000000000088
-0.0,-0.0,-0.0,-0.0,-0.0,-0.0,50.00000000000022,490.00000000000216,330.0000000000015,420.0000000000019,280.00000000000125,210.00000000000094
-0.0,-0.0,-0.0,-0.0,-0.0,-0.0,40.00000000000018,490.00000000000216,340.00000000000153,420.0000000000019,290.0000000000013,220.00000000000097
-10.000000000000044,-0.0,-0.0,-0.0,-0.0,-0.0,40.00000000000018,500.0000000000022,350.00000000000153,430.00000000000193,300.0000000000013,230.00000000000102
-10.000000000000044,-0.0,-0.0,-0.0,-0.0,-0.0,40.00000000000018,500.0000000000022,350.00000000000153,430.00000000000193,310.00000000000136,240.00000000000108
-10.000000000000044,-0.0,-0.0,-0.0,-0.0,-0.0,30.000000000000135,490.00000000000216,350.00000000000153,430.00000000000193,320.0000000000014,250.0000000000011
-0.0,-0.0,-0.0,-0.0,-0.0,-0.0,30.000000000000135,480.00000000000216,340.00000000000153,420.0000000000019,320.0000000000014,250.0000000000011
-0.0,-0.0,-0.0,-0.0,-0.0,-0.0,20.00000000000009,470.0000000000021,330.0000000000015,410.0000000000018,320.0000000000014,260.00000000000114
-0.0,-0.0,-0.0,-0.0,-0.0,-0.0,10.000000000000044,450.000000000002,310.00000000000136,390.0000000000017,310.00000000000136,250.0000000000011
-0.0,-0.0,-0.0,-0.0,-0.0,-0.0,10.000000000000044,430.00000000000193,290.0000000000013,370.00000000000165,310.00000000000136,250.0000000000011
-0.0,-0.0,-0.0,-0.0,-0.0,-0.0,-0.0,400.00000000000176,260.00000000000114,350.00000000000153,300.0000000000013,250.0000000000011
-10.000000000000044,-10.000000000000044,-0.0,10.000000000000044,-0.0,-0.0,-0.0,370.00000000000165,230.00000000000102,320.0000000000014,280.00000000000125,240.00000000000108
-0.0,-10.000000000000044,-0.0,10.000000000000044,-0.0,-10.000000000000044,-0.0,340.00000000000153,200.00000000000088,300.0000000000013,260.00000000000114,230.00000000000102
-0.0,-10.000000000000044,-0.0,10.000000000000044,-0.0,-10.000000000000044,-0.0,310.00000000000136,160.0000000000007,270.0000000000012,240.00000000000108,210.00000000000094
-0.0,-10.000000000000044,-10.000000000000044,-0.0,-0.0,-10.000000000000044,-0.0,270.0000000000012,130.00000000000057,240.00000000000108,220.00000000000097,200.00000000000088
-0.0,-10.000000000000044,-10.000000000000044,-0.0,-0.0,-10.000000000000044,-0.0,240.00000000000108,100.00000000000044,220.00000000000097,200.00000000000088,180.0000000000008
-0.0,-10.000000000000044,-10.000000000000044,-0.0,-0.0,-10.000000000000044,-0.0,210.00000000000094,70.00000000000031,190.00000000000085,180.0000000000008,160.0000000000007
-0.0,-10.000000000000044,-10.000000000000044,-0.0,-0.0,-10.000000000000044,-0.0,180.0000000000008,40.00000000000018,170.00000000000077,160.0000000000007,140.00000000000063
-0.0,-10.000000000000044,-20.00000000000009,-0.0,10.000000000000044,-10.000000000000044,-0.0,150.00000000000065,10.000000000000044,150.00000000000065,140.00000000000063,120.00000000000054
10.000000000000044,-10.000000000000044,-20.00000000000009,-0.0,10.000000000000044,-10.000000000000044,-0.0,130.00000000000057,-0.0,120.00000000000054,120.00000000000054,110.00000000000048
10.000000000000044,-0.0,-20.00000000000009,-0.0,20.00000000000009,-10.000000000000044,-0.0,100.00000000000044,-20.00000000000009,100.00000000000044,100.00000000000044,90.0000000000004
10.000000000000044,-0.0,-20.00000000000009,-0.0,20.00000000000009,-10.000000000000044,-10.000000000000044,80.00000000000036,-40.00000000000018,80.00000000000036,90.0000000000004,70.00000000000031
10.000000000000044,-0.0,-20.00000000000009,-0.0,20.00000000000009,-10.000000000000044,-10.000000000000044,60.00000000000027,-50.00000000000022,70.00000000000031,70.00000000000031,60.00000000000027
10.000000000000044,-0.0,-20.00000000000009,-0.0,20.00000000000009,-10.000000000000044,-0.0,50.00000000000022,-60.00000000000027,60.00000000000027,60.00000000000027,50.00000000000022
10.000000000000044,-0.0,-20.00000000000009,-0.0,20.00000000000009,-10.000000000000044,-0.0,40.00000000000018,-70.00000000000031,40.00000000000018,50.00000000000022,40.00000000000018
10.000000000000044,-10.000000000000044,-20.00000000000009,-0.0,20.00000000000009,-10.000000000000044,-0.0,30.000000000000135,-70.00000000000031,40.00000000000018,40.00000000000018,30.000000000000135
10.000000000000044,-10.000000000000044,-20.00000000000009,-0.0,20.00000000000009,-10.000000000000044,-0.0,20.00000000000009,-80.00000000000036,30.000000000000135,30.000000000000135,30.000000000000135
10.000000000000044,-0.0,-20.00000000000009,-0.0,20.00000000000009,-10.000000000000044,-0.0,20.00000000000009,-80.00000000000036,20.00000000000009,30.000000000000135,20.00000000000009
20.00000000000009,-0.0,-20.00000000000009,-0.0,20.00000000000009,-10.000000000000044,-0.0,10.000000000000044,-80.00000000000036,20.00000000000009,20.00000000000009,20.00000000000009
20.00000000000009,-0.0,-20.00000000000009,-10.000000000000044,20.00000000000009,-10.000000000000044,-0.0,-0.0,-80.00000000000036,10.000000000000044,20.00000000000009,10.000000000000044
20.00000000000009,-0.0,-20.00000000000009,-10.000000000000044,20.00000000000009,-10.000000000000044,-0.0,-0.0,-90.0000000000004,10.000000000000044,10.000000000000044,10.000000000000044
20.00000000000009,-0.0,-20.00000000000009,-10.000000000000044,20.00000000000009,-10.000000000000044,-0.0,-0.0,-90.0000000000004,10.000000000000044,10.000000000000044,10.000000000000044
20.00000000000009,-0.0,-20.00000000000009,-10.000000000000044,20.00000000000009,-10.000000000000044,-0.0,-0.0,-90.0000000000004,10.000000000000044,10.000000000000044,10.000000000000044
30.000000000000135,-0.0,-30.000000000000135,-10.000000000000044,30.000000000000135,-10.000000000000044,-0.0,-0.0,-90.0000000000004,10.000000000000044,10.000000000000044,-0.0
30.000000000000135,-0.0,-20.00000000000009,-10.000000000000044,30.000000000000135,-10.000000000000044,-0.0,-0.0,-90.0000000000004,10.000000000000044,10.000000000000044,-0.0
30.000000000000135,-0.0,-30.000000000000135,-10.000000000000044,20.00000000000009,-10.000000000000044,-0.0,-0.0,-100.00000000000044,10.000000000000044,10.000000000000044,-0.0
20.00000000000009,-0.0,-20.00000000000009,-10.000000000000044,20.00000000000009,-10.000000000000044,-0.0,-0.0,-100.00000000000044,20.00000000000009,10.000000000000044,-0.0
20.00000000000009,-0.0,-20.00000000000009,-0.0,20.00000000000009,-10.000000000000044,-0.0,-0.0,-100.00000000000044,20.00000000000009,10.000000000000044,10.000000000000044
20.00000000000009,-0.0,-20.00000000000009,-0.0,20.00000000000009,-10.000000000000044,-0.0,-0.0,-100.00000000000044,20.00000000000009,10.000000000000044,10.000000000000044
20.00000000000009,-0.0,-20.00000000000009,-10.000000000000044,20.00000000000009,-10.000000000000044,-0.0,-0.0,-110.00000000000048,20.00000000000009,10.000000000000044,10.000000000000044
30.000000000000135,-0.0,-30.000000000000135,-10.000000000000044,30.000000000000135,-10.000000000000044,-0.0,-0.0,-110.00000000000048,20.00000000000009,10.000000000000044,10.000000000000044
40.00000000000018,-0.0,-30.000000000000135,-20.00000000000009,30.000000000000135,-10.000000000000044,-0.0,-0.0,-110.00000000000048,20.00000000000009,10.000000000000044,10.000000000000044
40.00000000000018,-0.0,-30.000000000000135,-30.000000000000135,30.000000000000135,-0.0,-0.0,-0.0,-110.00000000000048,10.000000000000044,10.000000000000044,10.000000000000044
40.00000000000018,10.000000000000044,-30.000000000000135,-30.000000000000135,40.00000000000018,-0.0,-0.0,-0.0,-110.00000000000048,10.000000000000044,10.000000000000044,-0.0
40.00000000000018,10.000000000000044,-30.000000000000135,-30.000000000000135,40.00000000000018,-0.0,-0.0,-0.0,-100.00000000000044,10.000000000000044,10.000000000000044,-0.0
40.00000000000018,10.000000000000044,-30.000000000000135,-30.000000000000135,30.000000000000135,-0.0,-0.0,-0.0,-100.00000000000044,10.000000000000044,10.000000000000044,-0.0
40.00000000000018,10.000000000000044,-30.000000000000135,-20.00000000000009,30.000000000000135,-0.0,-0.0,-0.0,-90.0000000000004,10.000000000000044,10.000000000000044,-0.0
40.00000000000018,10.000000000000044,-30.000000000000135,-20.00000000000009,30.000000000000135,-0.0,-0.0,-0.0,-80.00000000000036,10.000000000000044,10.000000000000044,10.000000000000044
40.00000000000018,10.000000000000044,-30.000000000000135,-20.00000000000009,30.000000000000135,-0.0,-0.0,-0.0,-70.00000000000031,10.000000000000044,10.000000000000044,10.000000000000044
40.00000000000018,10.000000000000044,-30.000000000000135,-20.00000000000009,30.000000000000135,-0.0,-0.0,-0.0,-60.00000000000027,20.00000000000009,10.000000000000044,10.000000000000044
40.00000000000018,10.000000000000044,-30.000000000000135,-20.00000000000009,30.000000000000135,-0.0,-0.0,-0.0,-50.00000000000022,20.00000000000009,10.000000000000044,10.000000000000044
40.00000000000018,10.000000000000044,-30.000000000000135,-20.00000000000009,30.000000000000135,-10.000000000000044,-0.0,-0.0,-40.00000000000018,20.00000000000009,10.000000000000044,10.000000000000044
40.00000000000018,-0.0,-30.000000000000135,-20.00000000000009,30.000000000000135,-10.000000000000044,-0.0,10.000000000000044,-30.000000000000135,20.00000000000009,20.00000000000009,10.000000000000044
40.00000000000018,-0.0,-30.000000000000135,-20.00000000000009,30.000000000000135,-0.0,-0.0,10.000000000000044,-20.00000000000009,30.000000000000135,20.00000000000009,10.000000000000044
40.00000000000018,-0.0,-30.000000000000135,-20.00000000000009,30.000000000000135,-0.0,10.000000000000044,10.000000000000044,-20.00000000000009,30.000000000000135,20.00000000000009,10.000000000000044
40.00000000000018,-0.0,-30.000000000000135,-20.00000000000009,30.000000000000135,-0.0,-0.0,10.000000000000044,-20.00000000000009,30.000000000000135,30.000000000000135,10.000000000000044
40.00000000000018,-0.0,-30.000000000000135,-20.00000000000009,30.000000000000135,-0.0,-0.0,20.00000000000009,-20.00000000000009,30.000000000000135,30.000000000000135,10.000000000000044
30.000000000000135,-0.0,-20.00000000000009,-20.00000000000009,30.000000000000135,-0.0,-0.0,20.00000000000009,-30.000000000000135,30.000000000000135,30.000000000000135,10.000000000000044
30.000000000000135,-0.0,-30.000000000000135,-20.00000000000009,30.000000000000135,-10.000000000000044,-0.0,20.00000000000009,-30.000000000000135,30.000000000000135,30.000000000000135,10.000000000000044
30.000000000000135,-0.0,-30.000000000000135,-20.00000000000009,30.000000000000135,-10.000000000000044,-0.0,20.00000000000009,-50.00000000000022,30.000000000000135,30.000000000000135,10.000000000000044
30.000000000000135,-0.0,-30.000000000000135,-20.00000000000009,30.000000000000135,-10.000000000000044,-0.0,20.00000000000009,-60.00000000000027,30.000000000000135,30.000000000000135,10.000000000000044
30.000000000000135,-0.0,-30.000000000000135,-20.00000000000009,30.000000000000135,-10.000000000000044,-0.0,10.000000000000044,-70.00000000000031,20.00000000000009,30.000000000000135,-0.0
40.00000000000018,-0.0,-30.000000000000135,-20.00000000000009,30.000000000000135,-0.0,-0.0,10.000000000000044,-80.00000000000036,20.00000000000009,20.00000000000009,-0.0
40.00000000000018,-0.0,-30.000000000000135,-30.000000000000135,30.000000000000135,-0.0,-0.0,10.000000000000044,-90.0000000000004,20.00000000000009,20.00000000000009,-0.0
50.00000000000022,10.000000000000044,-30.000000000000135,-30.000000000000135,40.00000000000018,-0.0,-0.0,-0.0,-90.0000000000004,20.00000000000009,20.00000000000009,-0.0
50.00000000000022,10.000000000000044,-30.000000000000135,-30.000000000000135,40.00000000000018,-0.0,-0.0,-0.0,-100.00000000000044,10.000000000000044,10.000000000000044,-0.0
50.00000000000022,20.00000000000009,-30.000000000000135,-30.000000000000135,40.00000000000018,-0.0,-0.0,-0.0,-100.00000000000044,10.000000000000044,10.000000000000044,-0.0
50.00000000000022,20.00000000000009,-30.000000000000135,-30.000000000000135,40.00000000000018,-0.0,-0.0,-0.0,-100.00000000000044,10.000000000000044,10.000000000000044,-0.0
40.00000000000018,10.000000000000044,-20.00000000000009,-30.000000000000135,30.000000000000135,-0.0,-0.0,-0.0,-90.0000000000004,10.000000000000044,10.000000000000044,-0.0
30.000000000000135,10.000000000000044,-20.00000000000009,-20.00000000000009,20.00000000000009,-0.0,-0.0,-0.0,-90.0000000000004,10.000000000000044,10.000000000000044,-0.0
20.00000000000009,-0.0,-10.000000000000044,-10.000000000000044,10.000000000000044,-0.0,-0.0,-0.0,-90.0000000000004,10.000000000000044,10.000000000000044,-0.0
10.000000000000044,-0.0,-10.000000000000044,-10.000000000000044,-0.0,-0.0,-0.0,-0.0,-90.0000000000004,-0.0,10.000000000000044,-0.0
-0.0,-0.0,-0.0,-0.0,-0.0,-0.0,-0.0,-0.0,-80.00000000000036,-0.0,-0.0,-0.0
-0.0,-0.0,-0.0,-0.0,-0.0,-0.0,-0.0,-0.0,-80.00000000000036,-0.0,-0.0,-0.0
-0.0,-0.0,-0.0,-0.0,-0.0,-0.0,-0.0,-0.0,-80.00000000000036,-0.0,-0.0,-0.0
-0.0,10.000000000000044,10.000000000000044,-0.0,-0.0,10.000000000000044,-0.0,-0.0,-70.00000000000031,-0.0,-0.0,-0.0
-0.0,10.000000000000044,10.000000000000044,-0.0,-0.0,10.000000000000044,-0.0,-0.0,-70.00000000000031,-0.0,-0.0,-0.0
-0.0,10.000000000000044,20.00000000000009,-0.0,-0.0,20.00000000000009,-0.0,-0.0,-60.00000000000027,-0.0,-0.0,-0.0
-0.0,20.00000000000009,20.00000000000009,-0.0,-10.000000000000044,20.00000000000009,-0.0,-0.0,-60.00000000000027,-0.0,-0.0,-0.0
-0.0,20.00000000000009,20.00000000000009,-0.0,-10.000000000000044,20.00000000000009,-0.0,-0.0,-60.00000000000027,-0.0,-0.0,-0.0
-10.000000000000044,10.000000000000044,30.000000000000135,-0.0,-20.00000000000009,20.00000000000009,-0.0,-0.0,-50.00000000000022,-0.0,-0.0,-0.0
-20.00000000000009,10.000000000000044,40.00000000000018,-0.0,-30.000000000000135,20.00000000000009,-0.0,-0.0,-50.00000000000022,-0.0,-0.0,-0.0
-30.000000000000135,10.000000000000044,40.00000000000018,-0.0,-30.000000000000135,20.00000000000009,-0.0,-0.0,-50.00000000000022,-0.0,-0.0,-0.0
-40.00000000000018,-0.0,40.00000000000018,10.000000000000044,-40.00000000000018,20.00000000000009,-0.0,-0.0,-50.00000000000022,-0.0,-0.0,-0.0
-40.00000000000018,-0.0,40.00000000000018,20.00000000000009,-40.00000000000018,20.00000000000009,-0.0,-0.0,-50.00000000000022,-0.0,-0.0,-0.0
-40.00000000000018,-0.0,40.00000000000018,20.00000000000009,-40.00000000000018,10.000000000000044,-0.0,-0.0,-40.00000000000018,-0.0,-0.0,-10.000000000000044
-40.00000000000018,-0.0,30.000000000000135,20.00000000000009,-40.00000000000018,10.000000000000044,-0.0,-0.0,-40.00000000000018,-0.0,-0.0,-10.000000000000044
-40.00000000000018,-0.0,20.00000000000009,20.00000000000009,-30.000000000000135,-0.0,-0.0,-0.0,-40.00000000000018,-10.000000000000044,-10.000000000000044,-10.000000000000044
-40.00000000000018,-10.000000000000044,20.00000000000009,20.00000000000009,-30.000000000000135,-0.0,-0.0,-10.000000000000044,-40.00000000000018,-10.000000000000044,-10.000000000000044,-10.000000000000044
-30.000000000000135,-10.000000000000044,20.00000000000009,20.00000000000009,-20.00000000000009,-0.0,-0.0,-10.000000000000044,-50.00000000000022,-10.000000000000044,-10.000000000000044,-20.00000000000009
-30.000000000000135,-10.000000000000044,10.000000000000044,20.00000000000009,-20.00000000000009,-0.0,-0.0,-10.000000000000044,-50.00000000000022,-10.000000000000044,-10.000000000000044,-20.00000000000009
-20.00000000000009,-10.000000000000044,-0.0,10.000000000000044,-10.000000000000044,-0.0,-0.0,-10.000000000000044,-50.00000000000022,-10.000000000000044,-10.000000000000044,-20.00000000000009
-10.000000000000044,-10.000000000000044,-0.0,10.000000000000044,-0.0,-0.0,-0.0,-10.000000000000044,-50.00000000000022,-20.00000000000009,-10.000000000000044,-20.00000000000009
-10.000000000000044,-10.000000000000044,-0.0,-0.0,-0.0,-0.0,-0.0,-10.000000000000044,-60.00000000000027,-20.00000000000009,-20.00000000000009,-20.00000000000009
-0.0,-10.000000000000044,-10.000000000000044,-0.0,-0.0,-10.000000000000044,-0.0,-10.000000000000044,-60.00000000000027,-20.00000000000009,-20.00000000000009,-20.00000000000009
-0.0,-10.000000000000044,-10.000000000000044,-0.0,-0.0,-10.000000000000044,-0.0,-10.000000000000044,-60.00000000000027,-20.00000000000009,-20.00000000000009,-20.00000000000009
-0.0,-10.000000000000044,-20.00000000000009,-0.0,10.000000000000044,-10.000000000000044,-0.0,-10.000000000000044,-50.00000000000022,-20.00000000000009,-20.00000000000009,-20.00000000000009
10.000000000000044,-0.0,-20.00000000000009,-0.0,20.00000000000009,-10.000000000000044,10.000000000000044,-10.000000000000044,-40.00000000000018,-20.00000000000009,-10.000000000000044,-20.00000000000009
20.00000000000009,-0.0,-30.000000000000135,-10.000000000000044,20.00000000000009,-10.000000000000044,10.000000000000044,-10.000000000000044,-40.00000000000018,-10.000000000000044,-10.000000000000044,-10.000000000000044
30.000000000000135,-0.0,-30.000000000000135,-10.000000000000044,30.000000000000135,-10.000000000000044,10.000000000000044,-0.0,-30.000000000000135,-10.000000000000044,-10.000000000000044,-10.000000000000044
40.00000000000018,-0.0,-30.000000000000135,-20.00000000000009,40.00000000000018,-10.000000000000044,-0.0,-0.0,-20.00000000000009,-0.0,-0.0,-10.000000000000044
40.00000000000018,-0.0,-30.000000000000135,-20.00000000000009,40.00000000000018,-10.000000000000044,-0.0,-0.0,-10.000000000000044,-0.0,-0.0,-10.000000000000044
40.00000000000018,-0.0,-40.00000000000018,-20.00000000000009,40.00000000000018,-10.000000000000044,-0.0,-0.0,-0.0,-0.0,-0.0,-0.0
40.00000000000018,-0.0,-30.000000000000135,-20.00000000000009,40.00000000000018,-10.000000000000044,-0.0,-0.0,-0.0,-0.0,-0.0,-0.0
40.00000000000018,-0.0,-30.000000000000135,-20.00000000000009,30.000000000000135,-10.000000000000044,-0.0,-0.0,-0.0,-0.0,-0.0,-0.0
40.00000000000018,-0.0,-30.000000000000135,-20.00000000000009,40.00000000000018,-10.000000000000044,-0.0,-0.0,-0.0,-0.0,-0.0,-0.0
40.00000000000018,-0.0,-40.00000000000018,-20.00000000000009,40.00000000000018,-10.000000000000044,-0.0,-0.0,-0.0,-0.0,-0.0,-0.0
40.00000000000018,-0.0,-40.00000000000018,-20.00000000000009,40.00000000000018,-20.00000000000009,-0.0,10.000000000000044,10.000000000000044,-0.0,-0.0,-0.0
20.00000000000009,-0.0,-40.00000000000018,-10.000000000000044,20.00000000000009,-20.00000000000009,-0.0,10.000000000000044,20.00000000000009,-0.0,-0.0,-0.0
-20.00000000000009,-10.000000000000044,-20.00000000000009,20.00000000000009,-0.0,-30.000000000000135,-0.0,10.000000000000044,20.00000000000009,-0.0,-0.0,-0.0
-80.00000000000036,-40.00000000000018,10.000000000000044,70.00000000000031,-50.00000000000022,-30.000000000000135,10.000000000000044,20.00000000000009,30.000000000000135,-0.0,-0.0,-0.0
-190.00000000000085,-80.00000000000036,60.00000000000027,140.00000000000063,-130.00000000000057,-20.00000000000009,20.00000000000009,30.000000000000135,40.00000000000018,10.000000000000044,-0.0,-0.0
-310.00000000000136,-120.00000000000054,150.00000000000065,230.00000000000102,-230.00000000000102,-0.0,20.00000000000009,30.000000000000135,40.00000000000018,10.000000000000044,-0.0,-0.0
-440.00000000000193,-160.0000000000007,250.0000000000011,310.00000000000136,-350.00000000000153,30.000000000000135,20.00000000000009,30.000000000000135,50.00000000000022,10.000000000000044,-0.0,-0.0
-560.0000000000025,-190.00000000000085,350.00000000000153,370.00000000000165,-460.00000000000205,70.00000000000031,20.00000000000009,40.00000000000018,50.00000000000022,10.000000000000044,10.000000000000044,-0.0
-640.0000000000028,-200.00000000000088,430.00000000000193,410.0000000000018,-540.0000000000024,110.00000000000048,20.00000000000009,40.00000000000018,50.00000000000022,10.000000000000044,10.000000000000044,10.000000000000044
-670.000000000003,-200.00000000000088,480.00000000000216,410.0000000000018,-580.0000000000026,150.00000000000065,10.000000000000044,40.00000000000018,50.00000000000022,10.000000000000044,10.000000000000044,10.000000000000044
-620.0000000000027,-170.00000000000077,490.00000000000216,370.00000000000165,-560.0000000000025,170.00000000000077,10.000000000000044,30.000000000000135,50.00000000000022,10.000000000000044,10.000000000000044,10.000000000000044
-530.0000000000024,-130.00000000000057,450.000000000002,300.0000000000013,-500.0000000000022,180.0000000000008,-0.0,30.000000000000135,50.00000000000022,10.000000000000044,10.000000000000044,20.00000000000009
-410.0000000000018,-80.00000000000036,380.0000000000017,210.00000000000094,-400.00000000000176,180.0000000000008,-0.0,20.00000000000009,40.00000000000018,-0.0,10.000000000000044,20.00000000000009
-280.00000000000125,-20.00000000000009,300.0000000000013,120.00000000000054,-290.0000000000013,160.0000000000007,-10.000000000000044,10.000000000000044,30.000000000000135,-0.0,10.000000000000044,20.00000000000009
-140.00000000000063,20.00000000000009,200.00000000000088,30.000000000000135,-180.0000000000008,130.00000000000057,-20.00000000000009,-0.0,30.000000000000135,-0.0,10.000000000000044,20.00000000000009
-30.000000000000135,60.00000000000027,110.00000000000048,-30.000000000000135,-80.00000000000036,90.0000000000004,-20.00000000000009,-0.0,20.00000000000009,-0.0,-0.0,10.000000000000044
40.00000000000018,80.00000000000036,40.00000000000018,-70.00000000000031,-0.0,60.00000000000027,-30.000000000000135,-0.0,10.000000000000044,-0.0,-0.0,10.000000000000044
90.0000000000004,90.0000000000004,-10.000000000000044,-100.00000000000044,50.00000000000022,30.000000000000135,-30.000000000000135,-0.0,10.000000000000044,-0.0,-0.0,10.000000000000044
120.00000000000054,90.0000000000004,-40.00000000000018,-100.00000000000044,80.00000000000036,10.000000000000044,-30.000000000000135,-10.000000000000044,-0.0,-10.000000000000044,-0.0,10.000000000000044
120.00000000000054,80.00000000000036,-60.00000000000027,-100.00000000000044,90.0000000000004,-0.0,-30.000000000000135,-10.000000000000044,-0.0,-10.000000000000044,-0.0,-0.0
110.00000000000048,60.00000000000027,-60.00000000000027,-90.0000000000004,80.00000000000036,-0.0,-30.000000000000135,-10.000000000000044,-0.0,-20.00000000000009,-0.0,-0.0
80.00000000000036,50.00000000000022,-50.00000000000022,-60.00000000000027,60.00000000000027,-0.0,-30.000000000000135,-20.00000000000009,-10.000000000000044,-30.000000000000135,-10.000000000000044,-0.0
50.00000000000022,30.000000000000135,-40.00000000000018,-40.00000000000018,40.00000000000018,-0.0,-20.00000000000009,-20.00000000000009,-20.00000000000009,-40.00000000000018,-20.00000000000009,-0.0
30.000000000000135,10.000000000000044,-30.000000000000135,-20.00000000000009,30.000000000000135,-10.000000000000044,-20.00000000000009,-30.000000000000135,-30.000000000000135,-40.00000000000018,-30.000000000000135,-10.000000000000044
10.000000000000044,-0.0,-20.00000000000009,-0.0,20.00000000000009,-10.000000000000044,-10.000000000000044,-30.000000000000135,-40.00000000000018,-50.00000000000022,-40.00000000000018,-20.00000000000009
10.000000000000044,-0.0,-20.00000000000009,-0.0,20.00000000000009,-10.000000000000044,-10.000000000000044,-40.00000000000018,-50.00000000000022,-60.00000000000027,-50.00000000000022,-30.000000000000135
10.000000000000044,-0.0,-20.00000000000009,-0.0,20.00000000000009,-10.000000000000044,-10.000000000000044,-40.00000000000018,-50.00000000000022,-70.00000000000031,-60.00000000000027,-40.00000000000018
10.000000000000044,-0.0,-20.00000000000009,-0.0,20.00000000000009,-10.000000000000044,-10.000000000000044,-50.00000000000022,-60.00000000000027,-70.00000000000031,-70.00000000000031,-40.00000000000018
20.00000000000009,-0.0,-30.000000000000135,-0.0,20.00000000000009,-10.000000000000044,-10.000000000000044,-50.00000000000022,-60.00000000000027,-70.00000000000031,-70.00000000000031,-50.00000000000022
10.000000000000044,-0.0,-30.000000000000135,-0.0,20.00000000000009,-20.00000000000009,-10.000000000000044,-50.00000000000022,-60.00000000000027,-70.00000000000031,-70.00000000000031,-50.00000000000022
10.000000000000044,-10.000000000000044,-30.000000000000135,-0.0,20.00000000000009,-20.00000000000009,-10.000000000000044,-50.00000000000022,-60.00000000000027,-70.00000000000031,-70.00000000000031,-50.00000000000022
-0.0,-10.000000000000044,-30.000000000000135,-0.0,10.000000000000044,-20.00000000000009,-10.000000000000044,-50.00000000000022,-60.00000000000027,-70.00000000000031,-70.00000000000031,-50.00000000000022
-0.0,-20.00000000000009,-30.000000000000135,-0.0,10.000000000000044,-20.00000000000009,-10.000000000000044,-50.00000000000022,-60.00000000000027,-70.00000000000031,-70.00000000000031,-50.00000000000022
-0.0,-20.00000000000009,-30.000000000000135,-0.0,10.000000000000044,-20.00000000000009,-10.000000000000044,-50.00000000000022,-50.00000000000022,-70.00000000000031,-70.00000000000031,-50.00000000000022
-0.0,-20.00000000000009,-30.000000000000135,-0.0,10.000000000000044,-20.00000000000009,-10.000000000000044,-50.00000000000022,-50.00000000000022,-70.00000000000031,-70.00000000000031,-60.00000000000027
-0.0,-20.00000000000009,-20.00000000000009,10.000000000000044,10.000000000000044,-20.00000000000009,-0.0,-40.00000000000018,-30.000000000000135,-50.00000000000022,-70.00000000000031,-60.00000000000027
-0.0,-20.00000000000009,-20.00000000000009,10.000000000000044,10.000000000000044,-20.00000000000009,-0.0,-20.00000000000009,-10.000000000000044,-20.00000000000009,-70.00000000000031,-60.00000000000027
-0.0,-20.00000000000009,-20.00000000000009,10.000000000000044,10.000000000000044,-20.00000000000009,10.000000000000044,10.000000000000044,20.00000000000009,40.00000000000018,-50.00000000000022,-50.00000000000022
-0.0,-20.00000000000009,-20.00000000000009,10.000000000000044,-0.0,-20.00000000000009,20.00000000000009,60.00000000000027,80.00000000000036,120.00000000000054,-0.0,-20.00000000000009
-0.0,-20.00000000000009,-20.00000000000009,10.000000000000044,-0.0,-20.00000000000009,10.000000000000044,110.00000000000048,160.0000000000007,240.00000000000108,80.00000000000036,40.00000000000018
-0.0,-20.00000000000009,-10.000000000000044,-0.0,-0.0,-10.000000000000044,-10.000000000000044,150.00000000000065,240.00000000000108,370.00000000000165,210.00000000000094,140.00000000000063
-0.0,-10.000000000000044,-10.000000000000044,10.000000000000044,-0.0,-10.000000000000044,-50.00000000000022,180.0000000000008,290.0000000000013,480.00000000000216,380.0000000000017,280.00000000000125
-10.000000000000044,-10.000000000000044,-0.0,10.000000000000044,-0.0,-10.000000000000044,-120.00000000000054,170.00000000000077,290.0000000000013,550.0000000000024,550.0000000000024,450.000000000002
-30.000000000000135,-20.00000000000009,-0.0,20.00000000000009,-10.000000000000044,-10.000000000000044,-200.00000000000088,110.00000000000048,240.00000000000108,550.0000000000024,690.0000000000031,600.0000000000026
-40.00000000000018,-30.000000000000135,-0.0,40.00000000000018,-20.00000000000009,-20.00000000000009,-280.00000000000125,10.000000000000044,130.00000000000057,460.00000000000205,780.0000000000034,700.0000000000031
-60.00000000000027,-40.00000000000018,-0.0,50.00000000000022,-30.000000000000135,-20.00000000000009,-360.0000000000016,-150.00000000000065,-40.00000000000018,290.0000000000013,780.0000000000034,750.0000000000033
-70.00000000000031,-50.00000000000022,10.000000000000044,60.00000000000027,-40.00000000000018,-20.00000000000009,-420.0000000000019,-340.00000000000153,-250.0000000000011,80.00000000000036,680.0000000000031,720.0000000000032
-70.00000000000031,-50.00000000000022,10.000000000000044,60.00000000000027,-40.00000000000018,-10.000000000000044,-470.0000000000021,-560.0000000000025,-470.0000000000021,-160.0000000000007,510.0000000000023,630.0000000000028
-80.00000000000036,-50.00000000000022,20.00000000000009,60.00000000000027,-50.00000000000022,-10.000000000000044,-490.00000000000216,-760.0000000000034,-670.000000000003,-390.0000000000017,300.0000000000013,490.00000000000216
-80.00000000000036,-50.00000000000022,20.00000000000009,60.00000000000027,-50.00000000000022,-0.0,-490.00000000000216,-920.0000000000041,-820.0000000000036,-580.0000000000026,80.00000000000036,330.0000000000015
-80.00000000000036,-50.00000000000022,30.000000000000135,60.00000000000027,-60.00000000000027,-0.0,-470.0000000000021,-1020.0000000000045,-900.000000000004,-700.0000000000031,-120.00000000000054,170.00000000000077
-90.0000000000004,-40.00000000000018,40.00000000000018,60.00000000000027,-70.00000000000031,-0.0,-430.00000000000193,-1060.0000000000048,-910.0000000000041,-760.0000000000034,-290.0000000000013,30.000000000000135
-90.0000000000004,-40.00000000000018,50.00000000000022,60.00000000000027,-70.00000000000031,-0.0,-380.0000000000017,-1010.0000000000044,-860.0000000000039,-740.0000000000033,-400.00000000000176,-80.00000000000036
-100.00000000000044,-40.00000000000018,60.00000000000027,60.00000000000027,-80.00000000000036,10.000000000000044,-330.0000000000015,-920.0000000000041,-760.0000000000034,-680.0000000000031,-460.00000000000205,-160.0000000000007
-100.00000000000044,-30.000000000000135,70.00000000000031,60.00000000000027,-90.0000000000004,20.00000000000009,-270.0000000000012,-790.0000000000035,-630.0000000000028,-580.0000000000026,-460.00000000000205,-200.00000000000088
-110.00000000000048,-20.00000000000009,90.0000000000004,60.00000000000027,-100.00000000000044,30.000000000000135,-210.00000000000094,-640.0000000000028,-500.0000000000022,-460.00000000000205,-420.0000000000019,-200.00000000000088
-130.00000000000057,-20.00000000000009,100.00000000000044,70.00000000000031,-120.00000000000054,40.00000000000018,-150.00000000000065,-490.00000000000216,-370.00000000000165,-340.00000000000153,-350.00000000000153,-170.00000000000077
-140.00000000000063,-10.000000000000044,120.00000000000054,70.00000000000031,-140.00000000000063,50.00000000000022,-110.00000000000048,-350.00000000000153,-250.0000000000011,-240.00000000000108,-270.0000000000012,-140.00000000000063
-160.0000000000007,-10.000000000000044,140.00000000000063,80.00000000000036,-150.00000000000065,60.00000000000027,-70.00000000000031,-220.00000000000097,-160.0000000000007,-160.0000000000007,-210.00000000000094,-100.00000000000044
-170.00000000000077,-10.000000000000044,150.00000000000065,90.0000000000004,-170.00000000000077,70.00000000000031,-30.000000000000135,-130.00000000000057,-100.00000000000044,-110.00000000000048,-150.00000000000065,-80.00000000000036
-190.00000000000085,-10.000000000000044,170.00000000000077,90.0000000000004,-180.0000000000008,80.00000000000036,-10.000000000000044,-60.00000000000027,-70.00000000000031,-70.00000000000031,-110.00000000000048,-60.00000000000027
-200.00000000000088,-0.0,190.00000000000085,100.00000000000044,-200.00000000000088,90.0000000000004,-0.0,-10.000000000000044,-50.00000000000022,-50.00000000000022,-90.0000000000004,-50.00000000000022
-210.00000000000094,-0.0,200.00000000000088,100.00000000000044,-210.00000000000094,100.00000000000044,10.000000000000044,10.000000000000044,-40.00000000000018,-30.000000000000135,-70.00000000000031,-40.00000000000018
-220.00000000000097,-0.0,210.00000000000094,110.00000000000048,-220.00000000000097,100.00000000000044,20.00000000000009,30.000000000000135,-30.000000000000135,-20.00000000000009,-60.00000000000027,-30.000000000000135
-230.00000000000102,-0.0,220.00000000000097,110.00000000000048,-230.00000000000102,110.00000000000048,20.00000000000009,50.00000000000022,-20.00000000000009,-10.000000000000044,-50.00000000000022,-30.000000000000135
-240.00000000000108,-0.0,240.00000000000108,120.00000000000054,-240.00000000000108,110.00000000000048,30.000000000000135,60.00000000000027,-10.000000000000044,-0.0,-40.00000000000018,-20.00000000000009
-250.0000000000011,-0.0,250.0000000000011,120.00000000000054,-250.0000000000011,120.00000000000054,30.000000000000135,80.00000000000036,-0.0,10.000000000000044,-30.000000000000135,-20.00000000000009
-260.00000000000114,-0.0,260.00000000000114,120.00000000000054,-260.00000000000114,130.00000000000057,40.00000000000018,90.0000000000004,-0.0,20.00000000000009,-30.000000000000135,-20.00000000000009
-270.0000000000012,-0.0,270.0000000000012,130.00000000000057,-270.0000000000012,130.00000000000057,40.00000000000018,100.00000000000044,10.000000000000044,30.000000000000135,-20.00000000000009,-10.000000000000044
-270.0000000000012,-0.0,280.00000000000125,130.00000000000057,-270.0000000000012,140.00000000000063,40.00000000000018,110.00000000000048,20.00000000000009,40.00000000000018,-10.000000000000044,-10.000000000000044
-270.0000000000012,-0.0,280.00000000000125,120.00000000000054,-280.00000000000125,140.00000000000063,40.00000000000018,120.00000000000054,40.00000000000018,50.00000000000022,-0.0,-0.0
-270.0000000000012,10.000000000000044,280.00000000000125,120.00000000000054,-280.00000000000125,150.00000000000065,40.00000000000018,130.00000000000057,60.00000000000027,50.00000000000022,-0.0,-0.0
-260.00000000000114,10.000000000000044,280.00000000000125,110.00000000000048,-270.0000000000012,150.00000000000065,40.00000000000018,130.00000000000057,70.00000000000031,60.00000000000027,-0.0,-0.0
-250.0000000000011,10.000000000000044,280.00000000000125,100.00000000000044,-270.0000000000012,150.00000000000065,40.00000000000018,140.00000000000063,90.0000000000004,70.00000000000031,-0.0,-0.0
-240.00000000000108,20.00000000000009,260.00000000000114,100.00000000000044,-250.0000000000011,150.00000000000065,40.00000000000018,150.00000000000065,100.00000000000044,70.00000000000031,-0.0,-0.0
-220.00000000000097,30.000000000000135,250.0000000000011,90.0000000000004,-240.00000000000108,140.00000000000063,40.00000000000018,160.0000000000007,120.00000000000054,80.00000000000036,10.000000000000044,-0.0
-210.00000000000094,30.000000000000135,230.00000000000102,80.00000000000036,-220.00000000000097,130.00000000000057,40.00000000000018,160.0000000000007,130.00000000000057,80.00000000000036,10.000000000000044,-0.0
-190.00000000000085,30.000000000000135,220.00000000000097,70.00000000000031,-210.00000000000094,120.00000000000054,40.00000000000018,170.00000000000077,140.00000000000063,90.0000000000004,20.00000000000009,-0.0
-170.00000000000077,30.000000000000135,200.00000000000088,60.00000000000027,-190.00000000000085,110.00000000000048,40.00000000000018,180.0000000000008,160.0000000000007,90.0000000000004,20.00000000000009,-0.0
-150.00000000000065,30.000000000000135,180.0000000000008,50.00000000000022,-170.00000000000077,100.00000000000044,50.00000000000022,190.00000000000085,170.00000000000077,100.00000000000044,30.000000000000135,10.000000000000044
-130.00000000000057,30.000000000000135,160.0000000000007,40.00000000000018,-150.00000000000065,90.0000000000004,50.00000000000022,200.00000000000088,180.0000000000008,110.00000000000048,30.000000000000135,10.000000000000044
-120.00000000000054,30.000000000000135,140.00000000000063,40.00000000000018,-130.00000000000057,80.00000000000036,50.00000000000022,210.00000000000094,190.00000000000085,120.00000000000054,40.00000000000018,20.00000000000009
-100.00000000000044,20.00000000000009,120.00000000000054,30.000000000000135,-120.00000000000054,70.00000000000031,50.00000000000022,220.00000000000097,190.00000000000085,130.00000000000057,50.00000000000022,20.00000000000009
-100.00000000000044,20.00000000000009,110.00000000000048,30.000000000000135,-100.00000000000044,60.00000000000027,50.00000000000022,230.00000000000102,190.00000000000085,140.00000000000063,50.00000000000022,30.000000000000135
-90.0000000000004,10.000000000000044,90.0000000000004,30.000000000000135,-90.0000000000004,50.00000000000022,60.00000000000027,240.00000000000108,200.00000000000088,150.00000000000065,60.00000000000027,40.00000000000018
-80.00000000000036,-0.0,80.00000000000036,30.000000000000135,-80.00000000000036,40.00000000000018,60.00000000000027,260.00000000000114,200.00000000000088,170.00000000000077,70.00000000000031,40.00000000000018
-70.00000000000031,-0.0,60.00000000000027,30.000000000000135,-70.00000000000031,30.000000000000135,60.00000000000027,270.0000000000012,200.00000000000088,180.0000000000008,80.00000000000036,50.00000000000022
-60.00000000000027,-0.0,60.00000000000027,20.00000000000009,-60.00000000000027,20.00000000000009,60.00000000000027,290.0000000000013,200.00000000000088,200.00000000000088,90.0000000000004,60.00000000000027
-50.00000000000022,-0.0,50.00000000000022,20.00000000000009,-50.00000000000022,20.00000000000009,60.00000000000027,310.00000000000136,200.00000000000088,220.00000000000097,100.00000000000044,60.00000000000027
-40.00000000000018,-0.0,40.00000000000018,20.00000000000009,-40.00000000000018,20.00000000000009,70.00000000000031,340.00000000000153,200.00000000000088,240.00000000000108,110.00000000000048,70.00000000000031
-30.000000000000135,-0.0,30.000000000000135,10.000000000000044,-30.000000000000135,10.000000000000044,70.00000000000031,360.0000000000016,200.00000000000088,260.00000000000114,120.00000000000054,90.0000000000004
-30.000000000000135,-0.0,20.00000000000009,10.000000000000044,-30.000000000000135,10.000000000000044,70.00000000000031,380.0000000000017,210.00000000000094,290.0000000000013,140.00000000000063,100.00000000000044
-20.00000000000009,-0.0,20.00000000000009,10.000000000000044,-20.00000000000009,10.000000000000044,80.00000000000036,400.00000000000176,220.00000000000097,310.00000000000136,160.0000000000007,110.00000000000048
-20.00000000000009,-0.0,20.00000000000009,-0.0,-20.00000000000009,-0.0,80.00000000000036,420.0000000000019,230.00000000000102,330.0000000000015,180.0000000000008,120.00000000000054
-20.00000000000009,-0.0,20.00000000000009,-0.0,-20.00000000000009,-0.0,80.00000000000036,450.000000000002,250.0000000000011,350.00000000000153,200.00000000000088,140.00000000000063
-20.00000000000009,-0.0,10.000000000000044,10.000000000000044,-20.00000000000009,-0.0,70.00000000000031,470.0000000000021,270.0000000000012,370.00000000000165,210.00000000000094,150.00000000000065
-20.00000000000009,-0.0,10.000000000000044,10.000000000000044,-20.00000000000009,-0.0,70.00000000000031,490.00000000000216,290.0000000000013,390.0000000000017,230.00000000000102,170.00000000000077
-20.00000000000009,-0.0,10.000000000000044,10.000000000000044,-20.00000000000009,-0.0,70.00000000000031,500.0000000000022,310.00000000000136,400.00000000000176,240.00000000000108,180.0000000000008
-30.000000000000135,-0.0,10.000000000000044,10.000000000000044,-20.00000000000009,-0.0,60.00000000000027,520.0000000000023,340.00000000000153,420.0000000000019,260.00000000000114,200.00000000000088
-20.00000000000009,-10.000000000000044,10.000000000000044,10.000000000000044,-20.00000000000009,-0.0,60.00000000000027,530.0000000000024,360.0000000000016,420.0000000000019,270.0000000000012,210.00000000000094
-20.00000000000009,-0.0,20.00000000000009,10.000000000000044,-20.00000000000009,-0.0,60.00000000000027,540.0000000000024,380.0000000000017,430.00000000000193,280.00000000000125,220.00000000000097
-20.00000000000009,-0.0,20.00000000000009,-0.0,-20.00000000000009,-0.0,60.00000000000027,540.0000000000024,390.0000000000017,430.00000000000193,290.0000000000013,230.00000000000102
-10.000000000000044,-0.0,20.00000000000009,-0.0,-10.000000000000044,10.000000000000044,50.00000000000022,540.0000000000024,400.00000000000176,430.00000000000193,300.0000000000013,240.00000000000108
-0.0,10.000000000000044,20.00000000000009,-0.0,-10.000000000000044,20.00000000000009,50.00000000000022,530.0000000000024,410.0000000000018,430.00000000000193,310.00000000000136,240.00000000000108
-0.0,10.000000000000044,20.00000000000009,-10.000000000000044,-10.000000000000044,20.00000000000009,40.00000000000018,520.0000000000023,400.00000000000176,420.0000000000019,310.00000000000136,250.0000000000011
-0.0,20.00000000000009,20.00000000000009,-10.000000000000044,-10.000000000000044,20.00000000000009,30.000000000000135,500.0000000000022,390.0000000000017,410.0000000000018,310.00000000000136,250.0000000000011
-0.0,20.00000000000009,20.00000000000009,-10.000000000000044,-10.000000000000044,20.00000000000009,30.000000000000135,480.00000000000216,370.00000000000165,400.00000000000176,310.00000000000136,250.0000000000011
-0.0,20.00000000000009,20.00000000000009,-0.0,-10.000000000000044,10.000000000000044,20.00000000000009,460.00000000000205,350.00000000000153,380.0000000000017,310.00000000000136,240.00000000000108
-0.0,10.000000000000044,20.00000000000009,-0.0,-10.000000000000044,10.000000000000044,10.000000000000044,440.00000000000193,330.0000000000015,360.0000000000016,300.0000000000013,240.00000000000108
-10.000000000000044,10.000000000000044,10.000000000000044,-0.0,-10.000000000000044,10.000000000000044,10.000000000000044,410.0000000000018,290.0000000000013,330.0000000000015,290.0000000000013,230.00000000000102
-10.000000000000044,-0.0,10.000000000000044,-0.0,-10.000000000000044,-0.0,-0.0,370.00000000000165,250.0000000000011,310.00000000000136,270.0000000000012,220.00000000000097
-20.00000000000009,-0.0,20.00000000000009,-0.0,-20.00000000000009,-0.0,-0.0,330.0000000000015,220.00000000000097,280.00000000000125,250.0000000000011,210.00000000000094
-20.00000000000009,-0.0,20.00000000000009,10.000000000000044,-20.00000000000009,10.000000000000044,-0.0,300.0000000000013,180.0000000000008,250.0000000000011,230.00000000000102,190.00000000000085
-20.00000000000009,-0.0,20.00000000000009,10.000000000000044,-20.00000000000009,10.000000000000044,-0.0,260.00000000000114,140.00000000000063,220.00000000000097,210.00000000000094,170.00000000000077
-20.00000000000009,-0.0,20.00000000000009,10.000000000000044,-20.00000000000009,10.000000000000044,-0.0,230.00000000000102,110.00000000000048,190.00000000000085,190.00000000000085,160.0000000000007
-20.00000000000009,-0.0,20.00000000000009,10.000000000000044,-20.00000000000009,10.000000000000044,-0.0,200.00000000000088,80.00000000000036,170.00000000000077,170.00000000000077,140.00000000000063
-20.00000000000009,-0.0,20.00000000000009,10.000000000000044,-20.00000000000009,10.000000000000044,-0.0,170.00000000000077,50.00000000000022,140.00000000000063,150.00000000000065,120.00000000000054
-20.00000000000009,-0.0,20.00000000000009,10.000000000000044,-20.00000000000009,10.000000000000044,-0.0,140.00000000000063,30.000000000000135,120.00000000000054,130.00000000000057,100.00000000000044
-20.00000000000009,-0.0,20.00000000000009,-0.0,-20.00000000000009,10.000000000000044,-0.0,110.00000000000048,20.00000000000009,100.00000000000044,110.00000000000048,90.0000000000004
-10.000000000000044,-0.0,10.000000000000044,-0.0,-10.000000000000044,10.000000000000044,-0.0,90.0000000000004,10.000000000000044,90.0000000000004,100.00000000000044,80.00000000000036
-10.000000000000044,-0.0,10.000000000000044,-0.0,-10.000000000000044,-0.0,-0.0,80.00000000000036,-0.0,70.00000000000031,80.00000000000036,60.00000000000027
-0.0,-0.0,10.000000000000044,-0.0,-0.0,-0.0,-0.0,60.00000000000027,-0.0,60.00000000000027,70.00000000000031,50.00000000000022
-0.0,-0.0,-0.0,-0.0,-0.0,-0.0,-0.0,50.00000000000022,-0.0,40.00000000000018,50.00000000000022,40.00000000000018
-0.0,-0.0,-0.0,-0.0,-0.0,-0.0,-0.0,40.00000000000018,-0.0,30.000000000000135,40.00000000000018,30.000000000000135
-0.0,-0.0,-0.0,-0.0,-0.0,-0.0,-0.0,30.000000000000135,-0.0,20.00000000000009,30.000000000000135,20.00000000000009
-0.0,-0.0,-0.0,-0.0,-0.0,-0.0,-0.0,20.00000000000009,-0.0,10.000000000000044,20.00000000000009,10.000000000000044
-0.0,-0.0,-0.0,-0.0,-0.0,-0.0,-0.0,10.000000000000044,-0.0,-0.0,10.000000000000044,10.000000000000044
-0.0,-0.0,-0.0,-0.0,-0.0,-0.0,-0.0,-0.0,10.000000000000044,-0.0,10.000000000000044,-0.0
-0.0,-0.0,-0.0,-0.0,-0.0,-0.0,-0.0,-0.0,10.000000000000044,-0.0,-0.0,-0.0
-0.0,-0.0,-0.0,-0.0,-0.0,-0.0,-0.0,-0.0,10.000000000000044,-0.0,-0.0,-0.0
-0.0,-0.0,-0.0,-0.0,-0.0,-0.0,-0.0,-0.0,10.000000000000044,-0.0,-0.0,-0.0
-0.0,-0.0,-0.0,-0.0,-0.0,-0.0,-0.0,-0.0,10.000000000000044,-0.0,-0.0,-0.0
-0.0,-0.0,-0.0,-0.0,-0.0,-0.0,-0.0,-0.0,-0.0,-0.0,-0.0,-0.0
-0.0,-0.0,-0.0,-0.0,-0.0,-0.0,-0.0,-0.0,-0.0,-10.000000000000044,-0.0,-0.0
-0.0,-0.0,-0.0,-0.0,-0.0,-0.0,-0.0,-0.0,-0.0,-10.000000000000044,-0.0,-0.0
-0.0,-0.0,-0.0,-0.0,-0.0,-0.0,-0.0,-0.0,-0.0,-0.0,-0.0,-0.0
-0.0,-0.0,-0.0,-0.0,-0.0,-0.0,-0.0,-0.0,-0.0,-0.0,-0.0,-0.0
-0.0,-0.0,-0.0,-0.0,-0.0,-0.0,-0.0,-0.0,-10.000000000000044,-0.0,-0.0,-0.0
-0.0,-0.0,-0.0,-0.0,-0.0,-0.0,-0.0,-0.0,-10.000000000000044,-0.0,-0.0,-0.0
-0.0,-0.0,-0.0,-0.0,-0.0,-0.0,-0.0,-0.0,-10.000000000000044,-0.0,-0.0,-0.0
-0.0,-0.0,-0.0,-0.0,-0.0,-0.0,-0.0,-0.0,-20.00000000000009,-0.0,-0.0,-0.0
-0.0,-0.0,-0.0,-0.0,-0.0,-0.0,-0.0,-0.0,-20.00000000000009,-0.0,-0.0,-0.0
-0.0,-0.0,-0.0,-0.0,-0.0,-0.0,-0.0,-0.0,-20.00000000000009,-0.0,-0.0,-0.0
-0.0,-0.0,-10.000000000000044,-0.0,-0.0,-10.000000000000044,10.000000000000044,-0.0,-20.00000000000009,-0.0,-0.0,-0.0
-0.0,-10.000000000000044,-10.000000000000044,-0.0,-0.0,-10.000000000000044,10.000000000000044,-0.0,-10.000000000000044,-0.0,-0.0,-0.0
-0.0,-10.000000000000044,-0.0,-0.0,-0.0,-0.0,-0.0,-0.0,-10.000000000000044,-0.0,-0.0,-0.0
-0.0,-0.0,-10.000000000000044,-0.0,-0.0,-0.0,-0.0,-0.0,-0.0,-0.0,-0.0,-0.0
-0.0,-0.0,-10.000000000000044,-0.0,-0.0,-0.0,-0.0,-0.0,-0.0,-0.0,-0.0,-0.0
-0.0,-0.0,-10.000000000000044,-0.0,-0.0,-10.000000000000044,-0.0,-0.0,-0.0,-0.0,-0.0,-0.0
-0.0,-0.0,-10.000000000000044,-0.0,-0.0,-10.000000000000044,-0.0,-0.0,-0.0,-0.0,-0.0,-0.0
-0.0,-0.0,-10.000000000000044,-0.0,-0.0,-10.000000000000044,-0.0,-0.0,10.000000000000044,-0.0,-0.0,-0.0
-0.0,-10.000000000000044,-10.000000000000044,-0.0,-0.0,-0.0,-0.0,-0.0,10.000000000000044,-0.0,-0.0,-0.0
-0.0,-0.0,-10.000000000000044,-0.0,-0.0,-10.000000000000044,-0.0,-0.0,10.000000000000044,-0.0,-0.0,-0.0
-0.0,-10.000000000000044,-10.000000000000044,-0.0,-0.0,-10.000000000000044,-0.0,-0.0,20.00000000000009,-0.0,-0.0,-0.0
-0.0,-10.000000000000044,-10.000000000000044,-0.0,-0.0,-10.000000000000044,-0.0,-0.0,20.00000000000009,-0.0,-0.0,-0.0
-0.0,-10.000000000000044,-10.000000000000044,-0.0,10.000000000000044,-10.000000000000044,-0.0,-0.0,20.00000000000009,-0.0,-0.0,-0.0
-0.0,-10.000000000000044,-20.00000000000009,-0.0,-0.0,-10.000000000000044,-0.0,-0.0,10.000000000000044,-0.0,-0.0,-0.0
-0.0,-10.000000000000044,-10.000000000000044,-0.0,-0.0,-10.000000000000044,-0.0,-0.0,10.000000000000044,-0.0,-0.0,-0.0
-0.0,-10.000000000000044,-10.000000000000044,-0.0,-0.0,-10.000000000000044,-0.0,-0.0,-0.0,-0.0,-0.0,-0.0
-0.0,-10.000000000000044,-10.000000000000044,-0.0,-0.0,-10.000000000000044,-0.0,-0.0,-0.0,-0.0,-0.0,-0.0
-0.0,-10.000000000000044,-10.000000000000044,-0.0,-0.0,-10.000000000000044,-0.0,-0.0,-0.0,-0.0,-0.0,-0.0
-0.0,-10.000000000000044,-10.000000000000044,-0.0,-0.0,-10.000000000000044,-0.0,-0.0,-10.000000000000044,-0.0,-0.0,-0.0
-0.0,-10.000000000000044,-10.000000000000044,-0.0,-0.0,-10.000000000000044,-0.0,-0.0,-20.00000000000009,-0.0,-0.0,-0.0
-0.0,-10.000000000000044,-10.000000000000044,-0.0,10.000000000000044,-10.000000000000044,-0.0,-0.0,-20.00000000000009,-0.0,-0.0,-0.0
-0.0,-0.0,-10.000000000000044,-0.0,10.000000000000044,-10.000000000000044,-0.0,-0.0,-30.000000000000135,-0.0,-0.0,-0.0
10.000000000000044,-0.0,-10.000000000000044,-0.0,10.000000000000044,-0.0,-0.0,-0.0,-30.000000000000135,-0.0,-0.0,-0.0
10.000000000000044,-0.0,-10.000000000000044,-0.0,10.000000000000044,-0.0,-0.0,-0.0,-30.000000000000135,-0.0,-0.0,-0.0
10.000000000000044,-0.0,-10.000000000000044,-0.0,10.000000000000044,-0.0,-0.0,-0.0,-30.000000000000135,-0.0,-0.0,-10.000000000000044
10.000000000000044,-0.0,-10.000000000000044,-0.0,10.000000000000044,-0.0,-0.0,-0.0,-30.000000000000135,-0.0,-0.0,-10.000000000000044
10.000000000000044,-0.0,-10.000000000000044,-0.0,10.000000000000044,-0.0,-0.0,-0.0,-30.000000000000135,-0.0,-0.0,-10.000000000000044
-0.0,-0.0,-10.000000000000044,-0.0,10.000000000000044,-10.000000000000044,-0.0,-0.0,-20.00000000000009,-0.0,-0.0,-10.000000000000044
-0.0,-0.0,-10.000000000000044,-0.0,-0.0,-10.000000000000044,-0.0,-0.0,-20.00000000000009,-0.0,-0.0,-10.000000000000044
-0.0,-10.000000000000044,-10.000000000000044,-0.0,-0.0,-10.000000000000044,-0.0,-0.0,-10.000000000000044,-0.0,-0.0,-10.000000000000044
-0.0,-10.000000000000044,-10.000000000000044,-0.0,-0.0,-10.000000000000044,-0.0,-0.0,-0.0,-0.0,-0.0,-10.000000000000044
-0.0,-10.000000000000044,-10.000000000000044,-0.0,-0.0,-10.000000000000044,-0.0,-0.0,-0.0,-0.0,-0.0,-0.0
-0.0,-10.000000000000044,-10.000000000000044,-0.0,-0.0,-10.000000000000044,-0.0,-0.0,-0.0,-0.0,-0.0,-0.0
-0.0,-0.0,-10.000000000000044,-0.0,-0.0,-0.0,-0.0,-0.0,-0.0,-0.0,-0.0,-0.0
-0.0,-0.0,-10.000000000000044,-0.0,10.000000000000044,-0.0,-0.0,-0.0,-0.0,-10.000000000000044,-0.0,-0.0
-0.0,-0.0,-10.000000000000044,-0.0,-0.0,-10.000000000000044,-0.0,-10.000000000000044,-0.0,-10.000000000000044,-0.0,-10.000000000000044
-0.0,-0.0,-10.000000000000044,-0.0,-0.0,-0.0,-0.0,-10.000000000000044,-0.0,-10.000000000000044,-10.000000000000044,-10.000000000000044
-0.0,-0.0,-10.000000000000044,-0.0,-0.0,-0.0,-0.0,-10.000000000000044,-0.0,-20.00000000000009,-10.000000000000044,-10.000000000000044
-0.0,-0.0,-0.0,-0.0,-0.0,-0.0,-0.0,-10.000000000000044,-0.0,-20.00000000000009,-10.000000000000044,-10.000000000000044
-0.0,-0.0,-0.0,-0.0,-0.0,-0.0,-0.0,-20.00000000000009,-10.000000000000044,-30.000000000000135,-20.00000000000009,-10.000000000000044
-0.0,-0.0,-0.0,-0.0,-0.0,-0.0,-0.0,-20.00000000000009,-10.000000000000044,-30.000000000000135,-20.00000000000009,-20.00000000000009
-0.0,-0.0,-0.0,-0.0,-0.0,-0.0,-0.0,-20.00000000000009,-10.000000000000044,-30.000000000000135,-20.00000000000009,-20.00000000000009
-0.0,-0.0,-0.0,-0.0,-0.0,-0.0,-0.0,-20.00000000000009,-10.000000000000044,-30.000000000000135,-20.00000000000009,-20.00000000000009
-0.0,-0.0,-0.0,-0.0,-0.0,-0.0,-0.0,-20.00000000000009,-10.000000000000044,-30.000000000000135,-20.00000000000009,-20.00000000000009
-0.0,-0.0,-0.0,-0.0,-0.0,-0.0,-0.0,-20.00000000000009,-10.000000000000044,-30.000000000000135,-20.00000000000009,-20.00000000000009
-0.0,-0.0,-0.0,-0.0,-0.0,-0.0,-0.0,-20.00000000000009,-10.000000000000044,-30.000000000000135,-20.00000000000009,-20.00000000000009
-0.0,-0.0,10.000000000000044,-0.0,-10.000000000000044,-0.0,-0.0,-20.00000000000009,-10.000000000000044,-20.00000000000009,-20.00000000000009,-20.00000000000009
-10.000000000000044,-0.0,20.00000000000009,-0.0,-10.000000000000044,10.000000000000044,-0.0,-20.00000000000009,-10.000000000000044,-20.00000000000009,-20.00000000000009,-20.00000000000009
-10.000000000000044,-0.0,20.00000000000009,-0.0,-20.00000000000009,10.000000000000044,-0.0,-20.00000000000009,-10.000000000000044,-20.00000000000009,-20.00000000000009,-20.00000000000009
-10.000000000000044,-0.0,20.00000000000009,-0.0,-20.00000000000009,10.000000000000044,-0.0,-20.00000000000009,-10.000000000000044,-20.00000000000009,-20.00000000000009,-20.00000000000009
-20.00000000000009,-0.0,30.000000000000135,-0.0,-20.00000000000009,10.000000000000044,-0.0,-20.00000000000009,-0.0,-20.00000000000009,-20.00000000000009,-20.00000000000009
-20.00000000000009,-0.0,20.00000000000009,10.000000000000044,-20.00000000000009,10.000000000000044,-0.0,-20.00000000000009,-0.0,-20.00000000000009,-20.00000000000009,-20.00000000000009
-30.000000000000135,-0.0,30.000000000000135,10.000000000000044,-30.000000000000135,10.000000000000044,-0.0,-20.00000000000009,-0.0,-20.00000000000009,-20.00000000000009,-20.00000000000009
-40.00000000000018,-0.0,30.000000000000135,20.00000000000009,-30.000000000000135,10.000000000000044,-0.0,-20.00000000000009,-0.0,-20.00000000000009,-20.00000000000009,-20.00000000000009
-50.00000000000022,-0.0,40.00000000000018,20.00000000000009,-40.00000000000018,10.000000000000044,-0.0,-10.000000000000044,-0.0,-20.00000000000009,-20.00000000000009,-20.00000000000009
-60.00000000000027,-10.000000000000044,40.00000000000018,30.000000000000135,-50.00000000000022,10.000000000000044,-0.0,-10.000000000000044,-0.0,-20.00000000000009,-20.00000000000009,-20.00000000000009
-70.00000000000031,-10.000000000000044,50.00000000000022,40.00000000000018,-60.00000000000027,10.000000000000044,-0.0,-10.000000000000044,-0.0,-20.00000000000009,-20.00000000000009,-20.00000000000009
-70.00000000000031,-10.000000000000044,50.00000000000022,40.00000000000018,-60.00000000000027,10.000000000000044,-0.0,-10.000000000000044,-0.0,-20.00000000000009,-20.00000000000009,-20.00000000000009
-70.00000000000031,-10.000000000000044,50.00000000000022,40.00000000000018,-60.00000000000027,10.000000000000044,-0.0,-10.000000000000044,-0.0,-20.00000000000009,-20.00000000000009,-20.00000000000009
-70.00000000000031,-10.000000000000044,50.00000000000022,40.00000000000018,-60.00000000000027,10.000000000000044,-0.0,-20.00000000000009,-0.0,-20.00000000000009,-20.00000000000009,-20.00000000000009
-70.00000000000031,-10.000000000000044,50.00000000000022,40.00000000000018,-60.00000000000027,10.000000000000044,-0.0,-20.00000000000009,-0.0,-20.00000000000009,-20.00000000000009,-20.00000000000009
-60.00000000000027,-10.000000000000044,40.00000000000018,40.00000000000018,-50.00000000000022,10.000000000000044,-0.0,-20.00000000000009,-0.0,-20.00000000000009,-20.00000000000009,-20.00000000000009
-60.00000000000027,-10.000000000000044,40.00000000000018,40.00000000000018,-50.00000000000022,-0.0,-0.0,-20.00000000000009,-0.0,-20.00000000000009,-20.00000000000009,-20.00000000000009
-60.00000000000027,-20.00000000000009,30.000000000000135,30.000000000000135,-40.00000000000018,-0.0,-0.0,-20.00000000000009,-0.0,-20.00000000000009,-20.00000000000009,-20.00000000000009
-50.00000000000022,-20.00000000000009,30.000000000000135,30.000000000000135,-40.00000000000018,-0.0,-0.0,-20.00000000000009,-0.0,-20.00000000000009,-20.00000000000009,-20.00000000000009
-40.00000000000018,-20.00000000000009,20.00000000000009,20.00000000000009,-30.000000000000135,-0.0,-0.0,-20.00000000000009,-0.0,-20.00000000000009,-20.00000000000009,-10.000000000000044
-30.000000000000135,-10.000000000000044,10.000000000000044,10.000000000000044,-20.00000000000009,-0.0,-0.0,-10.000000000000044,10.000000000000044,-10.000000000000044,-20.00000000000009,-10.000000000000044
-10.000000000000044,-10.000000000000044,-0.0,-0.0,-10.000000000000044,-0.0,-0.0,-10.000000000000044,10.000000000000044,-10.000000000000044,-10.000000000000044,-10.000000000000044
-0.0,-0.0,-0.0,-0.0,-0.0,-0.0,-0.0,-0.0,20.00000000000009,-0.0,-10.000000000000044,-10.000000000000044
-0.0,-0.0,-0.0,-0.0,-0.0,-0.0,-0.0,-0.0,30.000000000000135,-0.0,-0.0,-0.0
10.000000000000044,-0.0,-10.000000000000044,-10.000000000000044,10.000000000000044,-0.0,-0.0,-0.0,30.000000000000135,-0.0,-0.0,-0.0
20.00000000000009,-0.0,-10.000000000000044,-20.00000000000009,20.00000000000009,-0.0,-0.0,10.000000000000044,40.00000000000018,-0.0,-0.0,-0.0
30.000000000000135,10.000000000000044,-20.00000000000009,-20.00000000000009,20.00000000000009,-0.0,10.000000000000044,10.000000000000044,50.00000000000022,-0.0,-0.0,-0.0
40.00000000000018,10.000000000000044,-20.00000000000009,-20.00000000000009,30.000000000000135,-0.0,10.000000000000044,20.00000000000009,50.00000000000022,10.000000000000044,-0.0,-0.0
40.00000000000018,10.000000000000044,-20.00000000000009,-20.00000000000009,30.000000000000135,-0.0,20.00000000000009,20.00000000000009,60.00000000000027,10.000000000000044,-0.0,-0.0
30.000000000000135,10.000000000000044,-20.00000000000009,-20.00000000000009,30.000000000000135,-0.0,20.00000000000009,30.000000000000135,60.00000000000027,10.000000000000044,10.000000000000044,-0.0
30.000000000000135,-0.0,-20.00000000000009,-20.00000000000009,30.000000000000135,-10.000000000000044,20.00000000000009,30.000000000000135,60.00000000000027,10.000000000000044,10.000000000000044,-0.0
20.00000000000009,-0.0,-20.00000000000009,-10.000000000000044,20.00000000000009,-10.000000000000044,10.000000000000044,30.000000000000135,60.00000000000027,10.000000000000044,10.000000000000044,10.000000000000044
20.00000000000009,-0.0,-20.00000000000009,-10.000000000000044,20.00000000000009,-10.000000000000044,-0.0,30.000000000000135,50.00000000000022,10.000000000000044,10.000000000000044,10.000000000000044
20.00000000000009,-0.0,-20.00000000000009,-10.000000000000044,20.00000000000009,-10.000000000000044,-0.0,20.00000000000009,50.00000000000022,10.000000000000044,20.00000000000009,10.000000000000044
30.000000000000135,-0.0,-30.000000000000135,-10.000000000000044,30.000000000000135,-10.000000000000044,-10.000000000000044,10.000000000000044,40.00000000000018,10.000000000000044,20.00000000000009,10.000000000000044
30.000000000000135,-0.0,-40.00000000000018,-10.000000000000044,30.000000000000135,-20.00000000000009,-20.00000000000009,10.000000000000044,30.000000000000135,-0.0,20.00000000000009,20.00000000000009
20.00000000000009,-0.0,-40.00000000000018,-10.000000000000044,30.000000000000135,-30.000000000000135,-30.000000000000135,-0.0,20.00000000000009,-0.0,10.000000000000044,10.000000000000044
-0.0,-10.000000000000044,-40.00000000000018,10.000000000000044,10.000000000000044,-40.00000000000018,-40.00000000000018,-0.0,20.00000000000009,-0.0,10.000000000000044,10.000000000000044
-50.00000000000022,-40.00000000000018,-20.00000000000009,50.00000000000022,-20.00000000000009,-40.00000000000018,-50.00000000000022,-0.0,10.000000000000044,-0.0,10.000000000000044,10.000000000000044
-140.00000000000063,-80.00000000000036,20.00000000000009,120.00000000000054,-80.00000000000036,-50.00000000000022,-50.00000000000022,-10.000000000000044,-0.0,-0.0,-0.0,-0.0
-260.00000000000114,-120.00000000000054,80.00000000000036,210.00000000000094,-170.00000000000077,-40.00000000000018,-50.00000000000022,-10.000000000000044,-0.0,-0.0,-0.0,-0.0
-400.00000000000176,-170.00000000000077,170.00000000000077,300.0000000000013,-290.0000000000013,-20.00000000000009,-50.00000000000022,-20.00000000000009,-0.0,-10.000000000000044,-0.0,-0.0
-540.0000000000024,-220.00000000000097,270.0000000000012,390.0000000000017,-410.0000000000018,10.000000000000044,-50.00000000000022,-20.00000000000009,-0.0,-10.000000000000044,-0.0,-0.0
-650.0000000000028,-260.00000000000114,370.00000000000165,460.00000000000205,-510.0000000000023,50.00000000000022,-50.00000000000022,-30.000000000000135,-10.000000000000044,-20.00000000000009,-0.0,-0.0
-710.0000000000032,-270.0000000000012,440.00000000000193,490.00000000000216,-580.0000000000026,90.0000000000004,-40.00000000000018,-30.000000000000135,-20.00000000000009,-30.000000000000135,-10.000000000000044,-10.000000000000044
-710.0000000000032,-260.00000000000114,480.00000000000216,460.00000000000205,-600.0000000000026,130.00000000000057,-40.00000000000018,-30.000000000000135,-20.00000000000009,-30.000000000000135,-20.00000000000009,-20.00000000000009
-640.0000000000028,-220.00000000000097,480.00000000000216,400.00000000000176,-560.0000000000025,150.00000000000065,-40.00000000000018,-40.00000000000018,-30.000000000000135,-40.00000000000018,-30.000000000000135,-20.00000000000009
-530.0000000000024,-160.0000000000007,440.00000000000193,310.00000000000136,-490.00000000000216,170.00000000000077,-40.00000000000018,-40.00000000000018,-30.000000000000135,-40.00000000000018,-30.000000000000135,-30.000000000000135
-390.0000000000017,-90.0000000000004,370.00000000000165,200.00000000000088,-390.0000000000017,180.0000000000008,-40.00000000000018,-50.00000000000022,-30.000000000000135,-50.00000000000022,-40.00000000000018,-40.00000000000018
-250.0000000000011,-20.00000000000009,290.0000000000013,90.0000000000004,-270.0000000000012,160.0000000000007,-30.000000000000135,-50.00000000000022,-30.000000000000135,-50.00000000000022,-40.00000000000018,-40.00000000000018
-110.00000000000048,40.00000000000018,200.00000000000088,-0.0,-150.00000000000065,140.00000000000063,-30.000000000000135,-50.00000000000022,-30.000000000000135,-50.00000000000022,-40.00000000000018,-40.00000000000018
-0.0,90.0000000000004,120.00000000000054,-60.00000000000027,-60.00000000000027,120.00000000000054,-30.000000000000135,-50.00000000000022,-30.000000000000135,-50.00000000000022,-50.00000000000022,-40.00000000000018
80.00000000000036,120.00000000000054,50.00000000000022,-110.00000000000048,10.000000000000044,90.0000000000004,-30.000000000000135,-50.00000000000022,-40.00000000000018,-50.00000000000022,-50.00000000000022,-50.00000000000022
130.00000000000057,130.00000000000057,-0.0,-140.00000000000063,60.00000000000027,70.00000000000031,-30.000000000000135,-50.00000000000022,-40.00000000000018,-60.00000000000027,-50.00000000000022,-50.00000000000022
150.00000000000065,140.00000000000063,-20.00000000000009,-140.00000000000063,80.00000000000036,50.00000000000022,-30.000000000000135,-60.00000000000027,-40.00000000000018,-60.00000000000027,-50.00000000000022,-50.00000000000022
140.00000000000063,130.00000000000057,-30.000000000000135,-130.00000000000057,90.0000000000004,40.00000000000018,-30.000000000000135,-60.00000000000027,-40.00000000000018,-60.00000000000027,-50.00000000000022,-50.00000000000022
120.00000000000054,110.00000000000048,-30.000000000000135,-120.00000000000054,70.00000000000031,30.000000000000135,-30.000000000000135,-60.00000000000027,-40.00000000000018,-60.00000000000027,-60.00000000000027,-50.00000000000022
100.00000000000044,100.00000000000044,-20.00000000000009,-100.00000000000044,50.00000000000022,30.000000000000135,-20.00000000000009,-60.00000000000027,-30.000000000000135,-60.00000000000027,-60.00000000000027,-60.00000000000027
70.00000000000031,80.00000000000036,-0.0,-80.00000000000036,40.00000000000018,20.00000000000009,-10.000000000000044,-40.00000000000018,-10.000000000000044,-30.000000000000135,-60.00000000000027,-60.00000000000027
50.00000000000022,60.00000000000027,-0.0,-60.00000000000027,30.000000000000135,20.00000000000009,-0.0,-10.000000000000044,10.000000000000044,10.000000000000044,-50.00000000000022,-60.00000000000027
40.00000000000018,50.00000000000022,-0.0,-50.00000000000022,20.00000000000009,20.00000000000009,-0.0,30.000000000000135,60.00000000000027,80.00000000000036,-10.000000000000044,-30.000000000000135
30.000000000000135,40.00000000000018,-0.0,-40.00000000000018,10.000000000000044,10.000000000000044,10.000000000000044,80.00000000000036,130.00000000000057,180.0000000000008,50.00000000000022,10.000000000000044
30.000000000000135,30.000000000000135,-0.0,-30.000000000000135,10.000000000000044,10.000000000000044,-0.0,130.00000000000057,220.00000000000097,310.00000000000136,160.0000000000007,90.0000000000004
30.000000000000135,30.000000000000135,-0.0,-30.000000000000135,10.000000000000044,10.000000000000044,-30.000000000000135,160.0000000000007,290.0000000000013,430.00000000000193,310.00000000000136,220.00000000000097
20.00000000000009,20.00000000000009,-0.0,-20.00000000000009,10.000000000000044,-0.0,-80.00000000000036,170.00000000000077,320.0000000000014,530.0000000000024,480.00000000000216,380.0000000000017
20.00000000000009,20.00000000000009,-0.0,-20.00000000000009,10.000000000000044,-0.0,-150.00000000000065,130.00000000000057,290.0000000000013,560.0000000000025,650.0000000000028,530.0000000000024
10.000000000000044,10.000000000000044,-0.0,-10.000000000000044,-0.0,-0.0,-230.00000000000102,30.000000000000135,200.00000000000088,500.0000000000022,770.0000000000034,660.000000000003
-0.0,10.000000000000044,-0.0,-0.0,-0.0,-0.0,-320.0000000000014,-120.00000000000054,50.00000000000022,360.0000000000016,810.0000000000036,730.0000000000033
-0.0,-0.0,-0.0,-0.0,-0.0,-0.0,-410.0000000000018,-310.00000000000136,-140.00000000000063,160.0000000000007,750.0000000000033,740.0000000000033
-0.0,-0.0,-0.0,-0.0,-0.0,-0.0,-490.00000000000216,-540.0000000000024,-360.0000000000016,-70.00000000000031,610.0000000000027,680.0000000000031
-0.0,-0.0,-0.0,-0.0,-0.0,-0.0,-540.0000000000024,-760.0000000000034,-580.0000000000026,-310.00000000000136,410.0000000000018,560.0000000000025
-0.0,-0.0,-0.0,-0.0,-0.0,-0.0,-570.0000000000025,-950.0000000000042,-750.0000000000033,-520.0000000000023,190.00000000000085,410.0000000000018
-10.000000000000044,-0.0,-0.0,-0.0,-0.0,-0.0,-570.0000000000025,-1070.0000000000048,-850.0000000000038,-670.000000000003,-20.00000000000009,250.0000000000011
-10.000000000000044,-0.0,-0.0,-0.0,-10.000000000000044,-0.0,-540.0000000000024,-1130.000000000005,-890.000000000004,-750.0000000000033,-200.00000000000088,100.00000000000044
-10.000000000000044,-0.0,-0.0,-0.0,-10.000000000000044,-0.0,-490.00000000000216,-1100.0000000000048,-850.0000000000038,-760.0000000000034,-330.0000000000015,-20.00000000000009
-10.000000000000044,-0.0,10.000000000000044,-0.0,-10.000000000000044,-0.0,-430.00000000000193,-1020.0000000000045,-770.0000000000034,-720.0000000000032,-410.0000000000018,-110.00000000000048
-10.000000000000044,-0.0,10.000000000000044,-0.0,-10.000000000000044,-0.0,-360.0000000000016,-890.000000000004,-650.0000000000028,-630.0000000000028,-450.000000000002,-170.00000000000077
-10.000000000000044,-0.0,10.000000000000044,-0.0,-10.000000000000044,-0.0,-280.00000000000125,-730.0000000000033,-510.0000000000023,-510.0000000000023,-420.0000000000019,-190.00000000000085
-10.000000000000044,-0.0,20.00000000000009,-0.0,-20.00000000000009,10.000000000000044,-220.00000000000097,-560.0000000000025,-370.00000000000165,-380.0000000000017,-360.0000000000016,-170.00000000000077
-20.00000000000009,-0.0,20.00000000000009,-0.0,-20.00000000000009,10.000000000000044,-160.0000000000007,-410.0000000000018,-240.00000000000108,-270.0000000000012,-280.00000000000125,-140.00000000000063
-20.00000000000009,-0.0,30.000000000000135,-0.0,-30.000000000000135,10.000000000000044,-100.00000000000044,-270.0000000000012,-150.00000000000065,-170.00000000000077,-200.00000000000088,-110.00000000000048
-30.000000000000135,-0.0,40.00000000000018,-0.0,-30.000000000000135,20.00000000000009,-60.00000000000027,-160.0000000000007,-80.00000000000036,-100.00000000000044,-140.00000000000063,-80.00000000000036
-40.00000000000018,-0.0,40.00000000000018,10.000000000000044,-40.00000000000018,20.00000000000009,-30.000000000000135,-70.00000000000031,-30.000000000000135,-50.00000000000022,-90.0000000000004,-60.00000000000027
-50.00000000000022,-0.0,50.00000000000022,20.00000000000009,-50.00000000000022,20.00000000000009,-10.000000000000044,-20.00000000000009,-10.000000000000044,-20.00000000000009,-60.00000000000027,-40.00000000000018
-60.00000000000027,-0.0,60.00000000000027,20.00000000000009,-60.00000000000027,20.00000000000009,-0.0,20.00000000000009,-0.0,-0.0,-40.00000000000018,-30.000000000000135
-70.00000000000031,-0.0,70.00000000000031,30.000000000000135,-70.00000000000031,30.000000000000135,10.000000000000044,40.00000000000018,-0.0,-0.0,-20.00000000000009,-20.00000000000009
-90.0000000000004,-0.0,70.00000000000031,40.00000000000018,-80.00000000000036,30.000000000000135,20.00000000000009,60.00000000000027,-0.0,20.00000000000009,-10.000000000000044,-20.00000000000009
-100.00000000000044,-0.0,80.00000000000036,50.00000000000022,-90.0000000000004,30.000000000000135,30.000000000000135,80.00000000000036,10.000000000000044,30.000000000000135,-0.0,-10.000000000000044
-100.00000000000044,-0.0,90.0000000000004,50.00000000000022,-100.00000000000044,40.00000000000018,30.000000000000135,90.0000000000004,10.000000000000044,40.00000000000018,-0.0,-10.000000000000044
-110.00000000000048,-0.0,100.00000000000044,60.00000000000027,-110.00000000000048,40.00000000000018,40.00000000000018,100.00000000000044,10.000000000000044,50.00000000000022,-0.0,-10.000000000000044
-120.00000000000054,-10.000000000000044,110.00000000000048,60.00000000000027,-120.00000000000054,40.00000000000018,40.00000000000018,110.00000000000048,20.00000000000009,60.00000000000027,-0.0,-10.000000000000044
-140.00000000000063,-10.000000000000044,110.00000000000048,70.00000000000031,-130.00000000000057,40.00000000000018,50.00000000000022,120.00000000000054,30.000000000000135,60.00000000000027,10.000000000000044,-10.000000000000044
-150.00000000000065,-10.000000000000044,120.00000000000054,80.00000000000036,-140.00000000000063,50.00000000000022,50.00000000000022,130.00000000000057,40.00000000000018,70.00000000000031,10.000000000000044,-10.000000000000044
-170.00000000000077,-20.00000000000009,130.00000000000057,90.0000000000004,-150.00000000000065,50.00000000000022,50.00000000000022,130.00000000000057,50.00000000000022,70.00000000000031,10.000000000000044,-10.000000000000044
-190.00000000000085,-30.000000000000135,140.00000000000063,100.00000000000044,-170.00000000000077,50.00000000000022,50.00000000000022,140.00000000000063,70.00000000000031,80.00000000000036,20.00000000000009,-0.0
-200.00000000000088,-30.000000000000135,150.00000000000065,110.00000000000048,-180.0000000000008,50.00000000000022,50.00000000000022,140.00000000000063,90.0000000000004,90.0000000000004,20.00000000000009,-0.0
-210.00000000000094,-30.000000000000135,170.00000000000077,120.00000000000054,-200.00000000000088,60.00000000000027,50.00000000000022,150.00000000000065,100.00000000000044,90.0000000000004,30.000000000000135,-0.0
-220.00000000000097,-30.000000000000135,180.0000000000008,120.00000000000054,-210.00000000000094,70.00000000000031,50.00000000000022,160.0000000000007,120.00000000000054,100.00000000000044,30.000000000000135,-0.0
-230.00000000000102,-30.000000000000135,200.00000000000088,120.00000000000054,-220.00000000000097,90.0000000000004,60.00000000000027,170.00000000000077,140.00000000000063,110.00000000000048,40.00000000000018,-0.0
-240.00000000000108,-20.00000000000009,220.00000000000097,120.00000000000054,-230.00000000000102,100.00000000000044,60.00000000000027,180.0000000000008,160.0000000000007,110.00000000000048,50.00000000000022,-0.0
-240.00000000000108,-10.000000000000044,230.00000000000102,120.00000000000054,-240.00000000000108,110.00000000000048,70.00000000000031,190.00000000000085,170.00000000000077,120.00000000000054,50.00000000000022,10.000000000000044
-250.0000000000011,-0.0,250.0000000000011,120.00000000000054,-250.0000000000011,120.00000000000054,70.00000000000031,200.00000000000088,190.00000000000085,130.00000000000057,60.00000000000027,10.000000000000044
-250.0000000000011,-0.0,260.00000000000114,120.00000000000054,-260.00000000000114,130.00000000000057,70.00000000000031,210.00000000000094,200.00000000000088,140.00000000000063,70.00000000000031,20.00000000000009
-260.00000000000114,-0.0,270.0000000000012,120.00000000000054,-260.00000000000114,130.00000000000057,70.00000000000031,220.00000000000097,210.00000000000094,150.00000000000065,70.00000000000031,20.00000000000009
-260.00000000000114,-0.0,270.0000000000012,120.00000000000054,-270.0000000000012,140.00000000000063,70.00000000000031,230.00000000000102,210.00000000000094,160.0000000000007,80.00000000000036,20.00000000000009
-260.00000000000114,-0.0,270.0000000000012,120.00000000000054,-270.0000000000012,140.00000000000063,70.00000000000031,240.00000000000108,210.00000000000094,170.00000000000077,80.00000000000036,30.000000000000135
-260.00000000000114,-0.0,270.0000000000012,120.00000000000054,-270.0000000000012,140.00000000000063,70.00000000000031,260.00000000000114,220.00000000000097,180.0000000000008,90.0000000000004,30.000000000000135
-250.0000000000011,-0.0,270.0000000000012,110.00000000000048,-260.00000000000114,140.00000000000063,70.00000000000031,270.0000000000012,220.00000000000097,190.00000000000085,100.00000000000044,30.000000000000135
-240.00000000000108,10.000000000000044,260.00000000000114,110.00000000000048,-250.0000000000011,130.00000000000057,80.00000000000036,290.0000000000013,230.00000000000102,210.00000000000094,100.00000000000044,40.00000000000018
-230.00000000000102,10.000000000000044,240.00000000000108,100.00000000000044,-240.00000000000108,130.00000000000057,80.00000000000036,310.00000000000136,240.00000000000108,230.00000000000102,110.00000000000048,50.00000000000022
-210.00000000000094,10.000000000000044,230.00000000000102,90.0000000000004,-230.00000000000102,120.00000000000054,80.00000000000036,330.0000000000015,240.00000000000108,250.0000000000011,130.00000000000057,60.00000000000027
-200.00000000000088,20.00000000000009,220.00000000000097,80.00000000000036,-210.00000000000094,120.00000000000054,80.00000000000036,360.0000000000016,250.0000000000011,270.0000000000012,140.00000000000063,70.00000000000031
-180.0000000000008,20.00000000000009,200.00000000000088,70.00000000000031,-190.00000000000085,110.00000000000048,90.0000000000004,380.0000000000017,260.00000000000114,290.0000000000013,150.00000000000065,80.00000000000036
-170.00000000000077,20.00000000000009,180.0000000000008,70.00000000000031,-180.0000000000008,100.00000000000044,90.0000000000004,410.0000000000018,260.00000000000114,310.00000000000136,170.00000000000077,90.0000000000004
-150.00000000000065,20.00000000000009,160.0000000000007,60.00000000000027,-160.0000000000007,90.0000000000004,90.0000000000004,430.00000000000193,280.00000000000125,330.0000000000015,180.0000000000008,100.00000000000044
-140.00000000000063,10.000000000000044,140.00000000000063,60.00000000000027,-140.00000000000063,70.00000000000031,90.0000000000004,460.00000000000205,290.0000000000013,350.00000000000153,200.00000000000088,110.00000000000048
-130.00000000000057,-0.0,130.00000000000057,60.00000000000027,-130.00000000000057,60.00000000000027,100.00000000000044,480.00000000000216,310.00000000000136,370.00000000000165,220.00000000000097,130.00000000000057
-110.00000000000048,-0.0,110.00000000000048,50.00000000000022,-110.00000000000048,50.00000000000022,100.00000000000044,500.0000000000022,320.0000000000014,390.0000000000017,230.00000000000102,140.00000000000063
-100.00000000000044,-0.0,100.00000000000044,40.00000000000018,-100.00000000000044,40.00000000000018,100.00000000000044,520.0000000000023,350.00000000000153,410.0000000000018,250.0000000000011,150.00000000000065
-90.0000000000004,-0.0,80.00000000000036,40.00000000000018,-90.0000000000004,40.00000000000018,100.00000000000044,540.0000000000024,370.00000000000165,430.00000000000193,270.0000000000012,170.00000000000077
-80.00000000000036,-0.0,70.00000000000031,30.000000000000135,-80.00000000000036,30.000000000000135,100.00000000000044,560.0000000000025,390.0000000000017,440.00000000000193,280.00000000000125,180.0000000000008
-60.00000000000027,-0.0,50.00000000000022,30.000000000000135,-60.00000000000027,20.00000000000009,100.00000000000044,570.0000000000025,410.0000000000018,460.00000000000205,300.0000000000013,200.00000000000088
-50.00000000000022,-0.0,40.00000000000018,20.00000000000009,-50.00000000000022,20.00000000000009,100.00000000000044,590.0000000000026,430.00000000000193,470.0000000000021,310.00000000000136,210.00000000000094
-40.00000000000018,-0.0,40.00000000000018,20.00000000000009,-40.00000000000018,20.00000000000009,100.00000000000044,590.0000000000026,440.00000000000193,480.00000000000216,320.0000000000014,220.00000000000097
-30.000000000000135,-0.0,30.000000000000135,10.000000000000044,-30.000000000000135,10.000000000000044,90.0000000000004,600.0000000000026,450.000000000002,470.0000000000021,330.0000000000015,240.00000000000108
-30.000000000000135,-0.0,20.00000000000009,10.000000000000044,-30.000000000000135,10.000000000000044,90.0000000000004,590.0000000000026,450.000000000002,470.0000000000021,340.00000000000153,240.00000000000108
-20.00000000000009,-0.0,20.00000000000009,-0.0,-20.00000000000009,10.000000000000044,80.00000000000036,580.0000000000026,450.000000000002,460.00000000000205,340.00000000000153,250.0000000000011
-10.000000000000044,-0.0,10.000000000000044,-0.0,-10.000000000000044,-0.0,70.00000000000031,560.0000000000025,430.00000000000193,450.000000000002,340.00000000000153,250.0000000000011
-10.000000000000044,-0.0,10.000000000000044,-0.0,-10.000000000000044,-0.0,60.00000000000027,540.0000000000024,420.0000000000019,430.00000000000193,330.0000000000015,250.0000000000011
-0.0,-0.0,10.000000000000044,-0.0,-10.000000000000044,10.000000000000044,50.00000000000022,510.0000000000023,390.0000000000017,410.0000000000018,330.0000000000015,250.0000000000011
-0.0,-0.0,10.000000000000044,-0.0,-10.000000000000044,10.000000000000044,40.00000000000018,480.00000000000216,360.0000000000016,390.0000000000017,310.00000000000136,240.00000000000108
-0.0,-0.0,10.000000000000044,-0.0,-0.0,10.000000000000044,30.000000000000135,450.000000000002,330.0000000000015,360.0000000000016,300.0000000000013,240.00000000000108
-0.0,10.000000000000044,10.000000000000044,-10.000000000000044,-0.0,10.000000000000044,20.00000000000009,410.0000000000018,300.0000000000013,330.0000000000015,290.0000000000013,220.00000000000097
-0.0,20.00000000000009,10.000000000000044,-10.000000000000044,-0.0,20.00000000000009,10.000000000000044,370.00000000000165,280.00000000000125,310.00000000000136,270.0000000000012,210.00000000000094
-0.0,20.00000000000009,10.000000000000044,-10.000000000000044,-0.0,20.00000000000009,10.000000000000044,340.00000000000153,240.00000000000108,280.00000000000125,250.0000000000011,200.00000000000088
-0.0,20.00000000000009,10.000000000000044,-10.000000000000044,-0.0,20.00000000000009,-0.0,300.0000000000013,210.00000000000094,250.0000000000011,230.00000000000102,190.00000000000085
-0.0,20.00000000000009,20.00000000000009,-10.000000000000044,-0.0,20.00000000000009,-0.0,270.0000000000012,190.00000000000085,230.00000000000102,210.00000000000094,170.00000000000077
-0.0,20.00000000000009,10.000000000000044,-0.0,-0.0,10.000000000000044,-0.0,230.00000000000102,160.0000000000007,200.00000000000088,190.00000000000085,160.0000000000007
-0.0,10.000000000000044,10.000000000000044,-0.0,-0.0,-0.0,-0.0,200.00000000000088,140.00000000000063,170.00000000000077,170.00000000000077,140.00000000000063
-0.0,-0.0,10.000000000000044,-0.0,-10.000000000000044,-0.0,-0.0,170.00000000000077,120.00000000000054,150.00000000000065,150.00000000000065,120.00000000000054
-10.000000000000044,-0.0,10.000000000000044,-0.0,-10.000000000000044,-0.0,-0.0,150.00000000000065,100.00000000000044,120.00000000000054,130.00000000000057,100.00000000000044
-10.000000000000044,-0.0,-0.0,-0.0,-10.000000000000044,-0.0,-0.0,120.00000000000054,90.0000000000004,100.00000000000044,110.00000000000048,90.0000000000004
-0.0,-0.0,-0.0,-0.0,-0.0,-0.0,-0.0,100.00000000000044,70.00000000000031,80.00000000000036,90.0000000000004,70.00000000000031
-0.0,-0.0,10.000000000000044,-0.0,-0.0,-0.0,-0.0,80.00000000000036,70.00000000000031,60.00000000000027,70.00000000000031,60.00000000000027
-0.0,-0.0,10.000000000000044,-0.0,-0.0,-0.0,-0.0,60.00000000000027,60.00000000000027,40.00000000000018,60.00000000000027,40.00000000000018
-0.0,-0.0,-0.0,-0.0,-0.0,-0.0,-0.0,40.00000000000018,60.00000000000027,30.000000000000135,50.00000000000022,30.000000000000135
-0.0,-0.0,-0.0,-0.0,-0.0,-0.0,-0.0,30.000000000000135,60.00000000000027,20.00000000000009,30.000000000000135,30.000000000000135
-0.0,-0.0,-0.0,-0.0,-0.0,-0.0,-0.0,20.00000000000009,60.00000000000027,10.000000000000044,20.00000000000009,20.00000000000009
-0.0,-0.0,-0.0,-0.0,-0.0,-0.0,-0.0,10.000000000000044,60.00000000000027,-0.0,20.00000000000009,10.000000000000044
-0.0,-0.0,-0.0,-0.0,-0.0,-0.0,-0.0,10.000000000000044,60.00000000000027,-0.0,10.000000000000044,10.000000000000044
-0.0,-0.0,-0.0,-0.0,-0.0,-0.0,-0.0,10.000000000000044,70.00000000000031,-0.0,10.000000000000044,10.000000000000044
-0.0,-0.0,10.000000000000044,-0.0,-0.0,-0.0,-0.0,-0.0,70.00000000000031,-0.0,-0.0,-0.0
-0.0,-0.0,10.000000000000044,-0.0,-0.0,-0.0,-0.0,-0.0,70.00000000000031,-0.0,-0.0,-0.0
-0.0,-0.0,10.000000000000044,-0.0,-0.0,-0.0,-0.0,-0.0,70.00000000000031,-0.0,-0.0,-0.0
-0.0,-0.0,-0.0,-0.0,-0.0,-0.0,-0.0,-0.0,70.00000000000031,-10.000000000000044,-0.0,-0.0
-0.0,-0.0,-0.0,-0.0,-0.0,-0.0,-0.0,-0.0,70.00000000000031,-10.000000000000044,-0.0,-0.0
-0.0,-0.0,-0.0,-0.0,-0.0,-0.0,-0.0,-0.0,70.00000000000031,-10.000000000000044,-0.0,-0.0
-0.0,-0.0,-0.0,-0.0,-0.0,-0.0,-0.0,-0.0,60.00000000000027,-10.000000000000044,-10.000000000000044,-0.0
-0.0,-0.0,-0.0,-0.0,-0.0,-0.0,-0.0,-0.0,60.00000000000027,-10.000000000000044,-10.000000000000044,-0.0
-0.0,-0.0,-0.0,-10.000000000000044,-0.0,-0.0,-0.0,-0.0,60.00000000000027,-10.000000000000044,-0.0,-0.0
10.000000000000044,10.000000000000044,-0.0,-10.000000000000044,-0.0,-0.0,-0.0,-0.0,70.00000000000031,-0.0,-0.0,-0.0
10.000000000000044,10.000000000000044,-0.0,-10.000000000000044,-0.0,-0.0,-0.0,-0.0,70.00000000000031,-0.0,-0.0,-0.0
10.000000000000044,10.000000000000044,-0.0,-10.000000000000044,-0.0,-0.0,-0.0,-0.0,70.00000000000031,-0.0,-0.0,-0.0
10.000000000000044,10.000000000000044,-0.0,-10.000000000000044,-0.0,-0.0,-0.0,-0.0,80.00000000000036,-0.0,-0.0,-0.0
-0.0,-0.0,-0.0,-0.0,-0.0,-0.0,-0.0,10.000000000000044,80.00000000000036,-0.0,-0.0,-0.0
-0.0,-0.0,-0.0,-0.0,-0.0,-0.0,-0.0,10.000000000000044,90.0000000000004,-0.0,-0.0,-0.0
-0.0,-0.0,-10.000000000000044,-0.0,-0.0,-10.000000000000044,-0.0,10.000000000000044,90.0000000000004,10.000000000000044,-0.0,-0.0
-0.0,-10.000000000000044,-10.000000000000044,-0.0,-0.0,-10.000000000000044,-0.0,10.000000000000044,100.00000000000044,10.000000000000044,-0.0,-0.0
-0.0,-10.000000000000044,-10.000000000000044,10.000000000000044,-0.0,-10.000000000000044,-0.0,20.00000000000009,100.00000000000044,10.000000000000044,-0.0,-0.0
-0.0,-10.000000000000044,-10.000000000000044,-0.0,-0.0,-10.000000000000044,-0.0,20.00000000000009,100.00000000000044,10.000000000000044,-0.0,-0.0
-0.0,-10.000000000000044,-10.000000000000044,-0.0,-0.0,-10.000000000000044,-0.0,20.00000000000009,110.00000000000048,10.000000000000044,-0.0,-0.0
-0.0,-10.000000000000044,-10.000000000000044,-0.0,-0.0,-10.000000000000044,-0.0,20.00000000000009,110.00000000000048,10.000000000000044,10.000000000000044,-0.0
-0.0,-10.000000000000044,-10.000000000000044,-0.0,-0.0,-0.0,-0.0,20.00000000000009,120.00000000000054,10.000000000000044,10.000000000000044,-0.0
-0.0,-0.0,-10.000000000000044,-0.0,-0.0,-0.0,-0.0,20.00000000000009,120.00000000000054,10.000000000000044,10.000000000000044,-0.0
10.000000000000044,-0.0,-10.000000000000044,-0.0,10.000000000000044,-0.0,-0.0,20.00000000000009,120.00000000000054,10.000000000000044,10.000000000000044,-0.0
10.000000000000044,-0.0,-10.000000000000044,-0.0,10.000000000000044,-0.0,-0.0,20.00000000000009,120.00000000000054,-0.0,10.000000000000044,-0.0
10.000000000000044,-0.0,-10.000000000000044,-0.0,10.000000000000044,-0.0,-0.0,20.00000000000009,110.00000000000048,-0.0,10.000000000000044,-0.0
10.000000000000044,-0.0,-10.000000000000044,-0.0,10.000000000000044,-0.0,-0.0,10.000000000000044,100.00000000000044,-0.0,-0.0,-0.0
10.000000000000044,-0.0,-10.000000000000044,-0.0,10.000000000000044,-0.0,-0.0,10.000000000000044,90.0000000000004,-0.0,-0.0,-0.0
10.000000000000044,-0.0,-10.000000000000044,-0.0,10.000000000000044,-0.0,-0.0,-0.0,70.00000000000031,-0.0,-0.0,-0.0
10.000000000000044,-0.0,-10.000000000000044,-0.0,10.000000000000044,-0.0,-0.0,-0.0,60.00000000000027,-0.0,-0.0,-0.0
10.000000000000044,-0.0,-10.000000000000044,-10.000000000000044,10.000000000000044,-0.0,-0.0,-0.0,50.00000000000022,-0.0,-0.0,-0.0
20.00000000000009,-0.0,-10.000000000000044,-10.000000000000044,10.000000000000044,-0.0,-0.0,-0.0,40.00000000000018,-0.0,-0.0,-0.0
20.00000000000009,-0.0,-10.000000000000044,-10.000000000000044,10.000000000000044,-0.0,-0.0,-0.0,30.000000000000135,-0.0,-0.0,-0.0
20.00000000000009,-0.0,-20.00000000000009,-10.000000000000044,20.00000000000009,-0.0,-0.0,-0.0,20.00000000000009,-0.0,-0.0,-0.0
20.00000000000009,-0.0,-20.00000000000009,-10.000000000000044,20.00000000000009,-10.000000000000044,-0.0,-0.0,20.00000000000009,-0.0,-0.0,-0.0
10.000000000000044,-0.0,-20.00000000000009,-0.0,10.000000000000044,-10.000000000000044,-0.0,-0.0,20.00000000000009,-0.0,-0.0,-0.0
10.000000000000044,-0.0,-20.00000000000009,-0.0,10.000000000000044,-10.000000000000044,-0.0,-0.0,20.00000000000009,-0.0,-0.0,-0.0
-0.0,-10.000000000000044,-20.00000000000009,-0.0,10.000000000000044,-10.000000000000044,-0.0,-0.0,20.00000000000009,-0.0,-0.0,-0.0
-0.0,-10.000000000000044,-20.00000000000009,-0.0,10.000000000000044,-20.00000000000009,-0.0,-0.0,20.00000000000009,-0.0,-0.0,-0.0
-0.0,-20.00000000000009,-20.00000000000009,-0.0,-0.0,-20.00000000000009,-0.0,-0.0,20.00000000000009,-0.0,-0.0,-0.0
-0.0,-20.00000000000009,-20.00000000000009,-0.0,-0.0,-20.00000000000009,-0.0,-0.0,30.000000000000135,-0.0,-0.0,-0.0
-0.0,-20.00000000000009,-20.00000000000009,-0.0,10.000000000000044,-20.00000000000009,-0.0,-0.0,30.000000000000135,-0.0,-0.0,-0.0
-0.0,-20.00000000000009,-20.00000000000009,-0.0,10.000000000000044,-10.000000000000044,-0.0,-0.0,30.000000000000135,-0.0,-0.0,-0.0
-0.0,-10.000000000000044,-10.000000000000044,-0.0,10.000000000000044,-10.000000000000044,-0.0,-0.0,30.000000000000135,-0.0,-0.0,-0.0
-0.0,-10.000000000000044,-10.000000000000044,-0.0,10.000000000000044,-10.000000000000044,-0.0,-0.0,30.000000000000135,-0.0,-0.0,-0.0
10.000000000000044,-0.0,-10.000000000000044,-0.0,10.000000000000044,-10.000000000000044,-0.0,-0.0,40.00000000000018,-0.0,-0.0,-0.0
10.000000000000044,-0.0,-10.000000000000044,-0.0,10.000000000000044,-0.0,-0.0,-0.0,40.00000000000018,-0.0,-0.0,-0.0
-0.0,-0.0,-10.000000000000044,-0.0,10.000000000000044,-0.0,-0.0,-0.0,40.00000000000018,-0.0,-0.0,-0.0
-0.0,-0.0,-10.000000000000044,-0.0,10.000000000000044,-0.0,-0.0,-0.0,50.00000000000022,-0.0,-0.0,-0.0
-0.0,-0.0,-10.000000000000044,-0.0,10.000000000000044,-10.000000000000044,-0.0,-0.0,50.00000000000022,-0.0,-0.0,-0.0
10.000000000000044,-0.0,-10.000000000000044,-0.0,10.000000000000044,-0.0,-0.0,-0.0,50.00000000000022,-10.000000000000044,-0.0,-0.0
10.000000000000044,-0.0,-10.000000000000044,-0.0,10.000000000000044,-0.0,-0.0,-0.0,50.00000000000022,-10.000000000000044,-0.0,-0.0
10.000000000000044,-0.0,-10.000000000000044,-0.0,10.000000000000044,-0.0,-0.0,-0.0,40.00000000000018,-10.000000000000044,-0.0,-0.0
20.00000000000009,-0.0,-20.00000000000009,-10.000000000000044,10.000000000000044,-0.0,-0.0,-10.000000000000044,40.00000000000018,-20.00000000000009,-10.000000000000044,-0.0
20.00000000000009,-0.0,-20.00000000000009,-10.000000000000044,20.00000000000009,-0.0,-0.0,-10.000000000000044,30.000000000000135,-20.00000000000009,-10.000000000000044,-10.000000000000044
20.00000000000009,-0.0,-10.000000000000044,-10.000000000000044,20.00000000000009,-0.0,-0.0,-20.00000000000009,30.000000000000135,-30.000000000000135,-20.00000000000009,-10.000000000000044
20.00000000000009,-0.0,-10.000000000000044,-10.000000000000044,20.00000000000009,-0.0,-0.0,-20.00000000000009,20.00000000000009,-30.000000000000135,-20.00000000000009,-10.000000000000044
20.00000000000009,-0.0,-20.00000000000009,-10.000000000000044,20.00000000000009,-0.0,-0.0,-20.00000000000009,10.000000000000044,-30.000000000000135,-20.00000000000009,-10.000000000000044
20.00000000000009,-0.0,-20.00000000000009,-10.000000000000044,20.00000000000009,-0.0,-0.0,-30.000000000000135,-0.0,-30.000000000000135,-20.00000000000009,-20.00000000000009
10.000000000000044,-0.0,-20.00000000000009,-0.0,10.000000000000044,-0.0,-0.0,-30.000000000000135,-0.0,-30.000000000000135,-20.00000000000009,-20.00000000000009
10.000000000000044,-0.0,-10.000000000000044,-0.0,10.000000000000044,-0.0,-0.0,-30.000000000000135,-0.0,-30.000000000000135,-20.00000000000009,-20.00000000000009
10.000000000000044,-0.0,-10.000000000000044,-0.0,10.000000000000044,-0.0,-0.0,-30.000000000000135,-0.0,-30.000000000000135,-20.00000000000009,-20.00000000000009
-0.0,-0.0,-10.000000000000044,-0.0,-0.0,-0.0,-0.0,-30.000000000000135,-0.0,-20.00000000000009,-20.00000000000009,-20.00000000000009
-0.0,-0.0,-10.000000000000044,-0.0,-0.0,-0.0,-0.0,-20.00000000000009,-0.0,-20.00000000000009,-20.00000000000009,-10.000000000000044
-0.0,-0.0,-0.0,-0.0,-0.0,-0.0,-0.0,-20.00000000000009,-0.0,-20.00000000000009,-20.00000000000009,-10.000000000000044
-0.0,-0.0,-0.0,-0.0,-0.0,-0.0,-0.0,-20.00000000000009,-0.0,-10.000000000000044,-20.00000000000009,-10.000000000000044
-10.000000000000044,-0.0,-0.0,-0.0,-10.000000000000044,-0.0,-0.0,-10.000000000000044,-0.0,-10.000000000000044,-10.000000000000044,-10.000000000000044
-10.000000000000044,-0.0,10.000000000000044,-0.0,-10.000000000000044,-0.0,-0.0,-10.000000000000044,-0.0,-10.000000000000044,-10.000000000000044,-10.000000000000044
-20.00000000000009,-0.0,10.000000000000044,10.000000000000044,-20.00000000000009,-0.0,-0.0,-10.000000000000044,-0.0,-10.000000000000044,-10.000000000000044,-10.000000000000044
-20.00000000000009,-0.0,20.00000000000009,10.000000000000044,-20.00000000000009,-0.0,-0.0,-10.000000000000044,-0.0,-10.000000000000044,-10.000000000000044,-10.000000000000044
-20.00000000000009,-0.0,20.00000000000009,10.000000000000044,-20.00000000000009,10.000000000000044,-0.0,-10.000000000000044,-0.0,-10.000000000000044,-10.000000000000044,-10.000000000000044
-20.00000000000009,-0.0,20.00000000000009,-0.0,-20.00000000000009,10.000000000000044,-0.0,-10.000000000000044,-0.0,-20.00000000000009,-10.000000000000044,-10.000000000000044
-20.00000000000009,-0.0,20.00000000000009,-0.0,-20.00000000000009,10.000000000000044,-0.0,-10.000000000000044,-0.0,-20.00000000000009,-10.000000000000044,-10.000000000000044
-30.000000000000135,-0.0,30.000000000000135,-0.0,-30.000000000000135,20.00000000000009,-0.0,-10.000000000000044,-0.0,-30.000000000000135,-20.00000000000009,-10.000000000000044
-30.000000000000135,-0.0,30.000000000000135,10.000000000000044,-30.000000000000135,20.00000000000009,-0.0,-20.00000000000009,-0.0,-30.000000000000135,-20.00000000000009,-10.000000000000044
-40.00000000000018,-0.0,40.00000000000018,10.000000000000044,-40.00000000000018,20.00000000000009,-0.0,-20.00000000000009,-0.0,-30.000000000000135,-20.00000000000009,-10.000000000000044
-50.00000000000022,-0.0,50.00000000000022,20.00000000000009,-50.00000000000022,20.00000000000009,-0.0,-20.00000000000009,-0.0,-30.000000000000135,-20.00000000000009,-10.000000000000044
-50.00000000000022,-0.0,40.00000000000018,20.00000000000009,-50.00000000000022,20.00000000000009,-0.0,-20.00000000000009,-0.0,-30.000000000000135,-20.00000000000009,-10.000000000000044
-50.00000000000022,-0.0,40.00000000000018,20.00000000000009,-40.00000000000018,20.00000000000009,-0.0,-30.000000000000135,-0.0,-30.000000000000135,-20.00000000000009,-10.000000000000044
-40.00000000000018,-0.0,40.00000000000018,20.00000000000009,-40.00000000000018,10.000000000000044,-0.0,-30.000000000000135,-0.0,-30.000000000000135,-20.00000000000009,-10.000000000000044
-40.00000000000018,-0.0,30.000000000000135,20.00000000000009,-40.00000000000018,10.000000000000044,-0.0,-30.000000000000135,-0.0,-20.00000000000009,-20.00000000000009,-10.000000000000044
-40.00000000000018,-0.0,30.000000000000135,20.00000000000009,-30.000000000000135,-0.0,-0.0,-30.000000000000135,-0.0,-20.00000000000009,-20.00000000000009,-10.000000000000044
-40.00000000000018,-10.000000000000044,20.00000000000009,20.00000000000009,-30.000000000000135,-0.0,-0.0,-20.00000000000009,-0.0,-20.00000000000009,-20.00000000000009,-10.000000000000044
-40.00000000000018,-10.000000000000044,20.00000000000009,20.00000000000009,-30.000000000000135,-0.0,-0.0,-20.00000000000009,-0.0,-10.000000000000044,-20.00000000000009,-10.000000000000044
-30.000000000000135,-10.000000000000044,10.000000000000044,20.00000000000009,-20.00000000000009,-0.0,-0.0,-20.00000000000009,-0.0,-10.000000000000044,-10.000000000000044,-0.0
-20.00000000000009,-10.000000000000044,-0.0,10.000000000000044,-20.00000000000009,-0.0,-0.0,-10.000000000000044,-0.0,-0.0,-10.000000000000044,-0.0
-10.000000000000044,-10.000000000000044,-0.0,-0.0,-10.000000000000044,-0.0,-0.0,-0.0,-0.0,-0.0,-0.0,-0.0
-0.0,-0.0,-0.0,-0.0,-0.0,-0.0,-0.0,-0.0,10.000000000000044,-0.0,-0.0,-0.0
-0.0,-0.0,-0.0,-0.0,-0.0,-0.0,-0.0,-0.0,10.000000000000044,-0.0,-0.0,-0.0
-0.0,-0.0,-0.0,-0.0,-0.0,-0.0,10.000000000000044,-0.0,20.00000000000009,10.000000000000044,-0.0,-0.0
-0.0,-0.0,-10.000000000000044,-0.0,-0.0,-0.0,20.00000000000009,10.000000000000044,30.000000000000135,20.00000000000009,-0.0,-0.0
10.000000000000044,-0.0,-10.000000000000044,-10.000000000000044,10.000000000000044,-0.0,20.00000000000009,20.00000000000009,30.000000000000135,20.00000000000009,10.000000000000044,10.000000000000044
20.00000000000009,-0.0,-20.00000000000009,-20.00000000000009,20.00000000000009,-0.0,20.00000000000009,20.00000000000009,30.000000000000135,20.00000000000009,10.000000000000044,10.000000000000044
30.000000000000135,-0.0,-20.00000000000009,-20.00000000000009,20.00000000000009,-0.0,20.00000000000009,20.00000000000009,30.000000000000135,30.000000000000135,20.00000000000009,10.000000000000044
30.000000000000135,10.000000000000044,-20.00000000000009,-20.00000000000009,30.000000000000135,-0.0,10.000000000000044,20.00000000000009,30.000000000000135,30.000000000000135,20.00000000000009,20.00000000000009
30.000000000000135,10.000000000000044,-20.00000000000009,-20.00000000000009,30.000000000000135,-10.000000000000044,-0.0,20.00000000000009,20.00000000000009,30.000000000000135,30.000000000000135,20.00000000000009
20.00000000000009,-0.0,-20.00000000000009,-10.000000000000044,20.00000000000009,-10.000000000000044,-0.0,10.000000000000044,10.000000000000044,20.00000000000009,30.000000000000135,20.00000000000009
20.00000000000009,-0.0,-20.00000000000009,-0.0,20.00000000000009,-10.000000000000044,-10.000000000000044,-0.0,-0.0,20.00000000000009,30.000000000000135,30.000000000000135
20.00000000000009,-0.0,-30.000000000000135,-10.000000000000044,20.00000000000009,-10.000000000000044,-20.00000000000009,-0.0,-0.0,10.000000000000044,20.00000000000009,20.00000000000009
30.000000000000135,-0.0,-30.000000000000135,-10.000000000000044,30.000000000000135,-10.000000000000044,-40.00000000000018,-10.000000000000044,-20.00000000000009,-0.0,20.00000000000009,20.00000000000009
40.00000000000018,-0.0,-40.00000000000018,-20.00000000000009,30.000000000000135,-20.00000000000009,-40.00000000000018,-20.00000000000009,-30.000000000000135,-0.0,10.000000000000044,20.00000000000009
30.000000000000135,-0.0,-40.00000000000018,-10.000000000000044,30.000000000000135,-20.00000000000009,-50.00000000000022,-30.000000000000135,-50.00000000000022,-0.0,-0.0,10.000000000000044
-0.0,-0.0,-40.00000000000018,10.000000000000044,20.00000000000009,-30.000000000000135,-50.00000000000022,-40.00000000000018,-60.00000000000027,-10.000000000000044,-0.0,-0.0
-50.00000000000022,-30.000000000000135,-20.00000000000009,50.00000000000022,-20.00000000000009,-40.00000000000018,-50.00000000000022,-50.00000000000022,-80.00000000000036,-20.00000000000009,-0.0,-0.0
-140.00000000000063,-70.00000000000031,20.00000000000009,120.00000000000054,-80.00000000000036,-40.00000000000018,-50.00000000000022,-60.00000000000027,-90.0000000000004,-30.000000000000135,-10.000000000000044,-0.0
-260.00000000000114,-110.00000000000048,90.0000000000004,200.00000000000088,-180.0000000000008,-30.000000000000135,-50.00000000000022,-60.00000000000027,-100.00000000000044,-30.000000000000135,-10.000000000000044,-0.0
-400.00000000000176,-160.0000000000007,190.00000000000085,290.0000000000013,-300.0000000000013,-0.0,-50.00000000000022,-70.00000000000031,-120.00000000000054,-40.00000000000018,-20.00000000000009,-10.000000000000044
-530.0000000000024,-200.00000000000088,290.0000000000013,370.00000000000165,-410.0000000000018,30.000000000000135,-40.00000000000018,-70.00000000000031,-130.00000000000057,-40.00000000000018,-30.000000000000135,-20.00000000000009
-620.0000000000027,-230.00000000000102,380.0000000000017,420.0000000000019,-500.0000000000022,70.00000000000031,-30.000000000000135,-70.00000000000031,-140.00000000000063,-50.00000000000022,-30.000000000000135,-20.00000000000009
-670.000000000003,-230.00000000000102,450.000000000002,440.00000000000193,-560.0000000000025,110.00000000000048,-30.000000000000135,-70.00000000000031,-150.00000000000065,-50.00000000000022,-40.00000000000018,-30.000000000000135
-650.0000000000028,-210.00000000000094,480.00000000000216,410.0000000000018,-570.0000000000025,150.00000000000065,-20.00000000000009,-70.00000000000031,-160.0000000000007,-50.00000000000022,-40.00000000000018,-30.000000000000135
-580.0000000000026,-170.00000000000077,460.00000000000205,340.00000000000153,-520.0000000000023,170.00000000000077,-20.00000000000009,-70.00000000000031,-160.0000000000007,-50.00000000000022,-40.00000000000018,-30.000000000000135
-460.00000000000205,-100.00000000000044,410.0000000000018,240.00000000000108,-440.00000000000193,190.00000000000085,-10.000000000000044,-70.00000000000031,-170.00000000000077,-50.00000000000022,-40.00000000000018,-30.000000000000135
-310.00000000000136,-30.000000000000135,340.00000000000153,130.00000000000057,-330.0000000000015,190.00000000000085,-10.000000000000044,-70.00000000000031,-170.00000000000077,-50.00000000000022,-50.00000000000022,-40.00000000000018
-160.0000000000007,40.00000000000018,260.00000000000114,20.00000000000009,-210.00000000000094,180.0000000000008,-10.000000000000044,-80.00000000000036,-180.0000000000008,-50.00000000000022,-50.00000000000022,-40.00000000000018
-30.000000000000135,100.00000000000044,170.00000000000077,-60.00000000000027,-100.00000000000044,160.0000000000007,-10.000000000000044,-70.00000000000031,-180.0000000000008,-50.00000000000022,-40.00000000000018,-40.00000000000018
60.00000000000027,150.00000000000065,90.0000000000004,-120.00000000000054,-20.00000000000009,130.00000000000057,-10.000000000000044,-70.00000000000031,-180.0000000000008,-40.00000000000018,-40.00000000000018,-40.00000000000018
130.00000000000057,170.00000000000077,30.000000000000135,-160.0000000000007,40.00000000000018,100.00000000000044,-20.00000000000009,-70.00000000000031,-180.0000000000008,-40.00000000000018,-40.00000000000018,-40.00000000000018
160.0000000000007,170.00000000000077,-10.000000000000044,-160.0000000000007,80.00000000000036,70.00000000000031,-20.00000000000009,-70.00000000000031,-180.0000000000008,-40.00000000000018,-40.00000000000018,-30.000000000000135
160.0000000000007,150.00000000000065,-30.000000000000135,-150.00000000000065,100.00000000000044,40.00000000000018,-20.00000000000009,-70.00000000000031,-180.0000000000008,-30.000000000000135,-40.00000000000018,-40.00000000000018
140.00000000000063,130.00000000000057,-30.000000000000135,-130.00000000000057,90.0000000000004,30.000000000000135,-20.00000000000009,-70.00000000000031,-170.00000000000077,-20.00000000000009,-40.00000000000018,-40.00000000000018
120.00000000000054,100.00000000000044,-30.000000000000135,-110.00000000000048,70.00000000000031,20.00000000000009,-20.00000000000009,-40.00000000000018,-140.00000000000063,-0.0,-40.00000000000018,-50.00000000000022
90.0000000000004,80.00000000000036,-20.00000000000009,-90.0000000000004,50.00000000000022,20.00000000000009,-10.000000000000044,-20.00000000000009,-90.0000000000004,50.00000000000022,-20.00000000000009,-40.00000000000018
70.00000000000031,70.00000000000031,-10.000000000000044,-70.00000000000031,40.00000000000018,20.00000000000009,-0.0,20.00000000000009,-30.000000000000135,130.00000000000057,10.000000000000044,-20.00000000000009
60.00000000000027,60.00000000000027,-0.0,-60.00000000000027,30.000000000000135,20.00000000000009,-0.0,70.00000000000031,40.00000000000018,230.00000000000102,80.00000000000036,30.000000000000135
50.00000000000022,60.00000000000027,-0.0,-50.00000000000022,20.00000000000009,20.00000000000009,-20.00000000000009,130.00000000000057,120.00000000000054,350.00000000000153,200.00000000000088,120.00000000000054
