I,II,III,aVR,aVL,aVF,V1,V2,V3,V4,V5,V6
-0.0,40.00000000000018,20.00000000000009,-20.00000000000009,-0.0,20.00000000000009,-0.0,-0.0,-20.00000000000009,-20.00000000000009,-0.0,-0.0
-0.0,30.000000000000135,10.000000000000044,-10.000000000000044,-0.0,10.000000000000044,-10.000000000000044,-20.00000000000009,-20.00000000000009,-30.000000000000135,-0.0,-20.00000000000009
-0.0,10.000000000000044,-0.0,-0.0,-0.0,-0.0,-10.000000000000044,-20.00000000000009,-30.000000000000135,-30.000000000000135,-10.000000000000044,-20.00000000000009
-0.0,-0.0,-0.0,-0.0,-0.0,-0.0,-10.000000000000044,-30.000000000000135,-30.000000000000135,-30.000000000000135,-10.000000000000044,-20.00000000000009
-0.0,-0.0,-0.0,-0.0,-0.0,-10.000000000000044,-10.000000000000044,-30.000000000000135,-30.000000000000135,-30.000000000000135,-20.00000000000009,-20.00000000000009
-10.000000000000044,-10.000000000000044,-10.000000000000044,10.000000000000044,-0.0,-10.000000000000044,-10.000000000000044,-30.000000000000135,-30.000000000000135,-40.00000000000018,-20.00000000000009,-20.00000000000009
-10.000000000000044,-20.00000000000009,-10.000000000000044,20.00000000000009,-0.0,-20.00000000000009,-0.0,-30.000000000000135,-30.000000000000135,-40.00000000000018,-20.00000000000009,-30.000000000000135
-20.00000000000009,-30.000000000000135,-10.000000000000044,20.00000000000009,-0.0,-20.00000000000009,-0.0,-30.000000000000135,-30.000000000000135,-40.00000000000018,-30.000000000000135,-30.000000000000135
-20.00000000000009,-40.00000000000018,-10.000000000000044,30.000000000000135,-0.0,-30.000000000000135,-0.0,-30.000000000000135,-30.000000000000135,-40.00000000000018,-30.000000000000135,-30.000000000000135
-20.00000000000009,-40.00000000000018,-20.00000000000009,30.000000000000135,-0.0,-30.000000000000135,-0.0,-30.000000000000135,-180.0000000000008,-180.0000000000008,-30.000000000000135,-30.000000000000135
-30.000000000000135,-40.00000000000018,-20.00000000000009,30.000000000000135,-0.0,-30.000000000000135,-0.0,-30.000000000000135,-190.00000000000085,-190.00000000000085,-180.0000000000008,-180.0000000000008
-20.00000000000009,-50.00000000000022,-20.00000000000009,40.00000000000018,-0.0,-40.00000000000018,-0.0,-30.000000000000135,-210.00000000000094,-210.00000000000094,-190.00000000000085,-190.00000000000085
-20.00000000000009,-50.00000000000022,-30.000000000000135,40.00000000000018,-0.0,-40.00000000000018,-0.0,-20.00000000000009,-220.00000000000097,-220.00000000000097,-210.00000000000094,-210.00000000000094
-20.00000000000009,-60.00000000000027,-30.000000000000135,40.00000000000018,-0.0,-50.00000000000022,-0.0,-20.00000000000009,-240.00000000000108,-240.00000000000108,-220.00000000000097,-220.00000000000097
-20.00000000000009,-60.00000000000027,-40.00000000000018,40.00000000000018,-0.0,-50.00000000000022,-0.0,-20.00000000000009,-260.00000000000114,-260.00000000000114,-240.00000000000108,-240.00000000000108
-20.00000000000009,-60.00000000000027,-40.00000000000018,40.00000000000018,-0.0,-50.00000000000022,-0.0,-20.00000000000009,-290.0000000000013,-290.0000000000013,-260.00000000000114,-260.00000000000114
-20.00000000000009,-60.00000000000027,-40.00000000000018,40.00000000000018,10.000000000000044,-50.00000000000022,-0.0,-10.000000000000044,-320.0000000000014,-320.0000000000014,-290.0000000000013,-290.0000000000013
-20.00000000000009,-70.00000000000031,-40.00000000000018,40.00000000000018,-0.0,-60.00000000000027,20.00000000000009,-0.0,-350.00000000000153,-350.00000000000153,-320.0000000000014,-320.0000000000014
-30.000000000000135,-70.00000000000031,-50.00000000000022,50.00000000000022,-0.0,-60.00000000000027,30.000000000000135,-0.0,-360.0000000000016,-360.0000000000016,-350.00000000000153,-350.00000000000153
-30.000000000000135,-80.00000000000036,-50.00000000000022,50.00000000000022,-0.0,-60.00000000000027,40.00000000000018,30.000000000000135,-380.0000000000017,-380.0000000000017,-360.0000000000016,-360.0000000000016
-30.000000000000135,-80.00000000000036,-50.00000000000022,60.00000000000027,-0.0,-70.00000000000031,30.000000000000135,70.00000000000031,-400.00000000000176,-400.00000000000176,-380.0000000000017,-380.0000000000017
-30.000000000000135,-90.0000000000004,-50.00000000000022,40.00000000000018,-0.0,-60.00000000000027,-10.000000000000044,100.00000000000044,-380.0000000000017,-380.0000000000017,-400.00000000000176,-400.00000000000176
-0.0,-70.00000000000031,-30.000000000000135,10.000000000000044,10.000000000000044,-30.000000000000135,-80.00000000000036,90.0000000000004,-360.0000000000016,-360.0000000000016,-380.0000000000017,-380.0000000000017
30.000000000000135,-40.00000000000018,-10.000000000000044,-40.00000000000018,20.00000000000009,-0.0,-190.00000000000085,-0.0,-350.00000000000153,-350.00000000000153,-360.0000000000016,-360.0000000000016
80.00000000000036,20.00000000000009,10.000000000000044,-110.00000000000048,30.000000000000135,60.00000000000027,-330.0000000000015,-240.00000000000108,-320.0000000000014,-320.0000000000014,-350.00000000000153,-350.00000000000153
140.00000000000063,110.00000000000048,60.00000000000027,-190.00000000000085,30.000000000000135,140.00000000000063,-380.0000000000017,-400.00000000000176,-290.0000000000013,-290.0000000000013,-320.0000000000014,-320.0000000000014
190.00000000000085,220.00000000000097,120.00000000000054,-260.00000000000114,20.00000000000009,220.00000000000097,-290.0000000000013,-290.0000000000013,-200.00000000000088,-260.00000000000114,-290.0000000000013,-290.0000000000013
210.00000000000094,320.0000000000014,180.0000000000008,-300.0000000000013,-0.0,290.0000000000013,-260.00000000000114,-260.00000000000114,-350.00000000000153,-240.00000000000108,-260.00000000000114,-260.00000000000114
180.0000000000008,390.0000000000017,230.00000000000102,-300.0000000000013,-20.00000000000009,320.0000000000014,-240.00000000000108,-240.00000000000108,-220.00000000000097,-220.00000000000097,-240.00000000000108,-240.00000000000108
130.00000000000057,410.0000000000018,240.00000000000108,-230.00000000000102,-50.00000000000022,300.0000000000013,-220.00000000000097,-220.00000000000097,-210.00000000000094,-210.00000000000094,-220.00000000000097,-220.00000000000097
50.00000000000022,370.00000000000165,220.00000000000097,-190.00000000000085,-80.00000000000036,250.0000000000011,-210.00000000000094,-210.00000000000094,-190.00000000000085,-190.00000000000085,-210.00000000000094,-210.00000000000094
-20.00000000000009,280.00000000000125,180.0000000000008,-80.00000000000036,-100.00000000000044,170.00000000000077,-190.00000000000085,-190.00000000000085,-180.0000000000008,-180.0000000000008,-190.00000000000085,-190.00000000000085
-70.00000000000031,160.0000000000007,130.00000000000057,-0.0,-100.00000000000044,90.0000000000004,-180.0000000000008,-180.0000000000008,-400.00000000000176,-300.0000000000013,-180.0000000000008,-180.0000000000008
-110.00000000000048,60.00000000000027,90.0000000000004,50.00000000000022,-100.00000000000044,40.00000000000018,-260.00000000000114,-520.0000000000023,-260.00000000000114,-180.0000000000008,-60.00000000000027,-10.000000000000044
-110.00000000000048,-10.000000000000044,60.00000000000027,70.00000000000031,-90.0000000000004,-0.0,-200.00000000000088,-350.00000000000153,-150.00000000000065,-90.0000000000004,-30.000000000000135,-0.0
-90.0000000000004,-40.00000000000018,50.00000000000022,60.00000000000027,-70.00000000000031,-0.0,-140.00000000000063,-230.00000000000102,-80.00000000000036,-40.00000000000018,-10.000000000000044,-0.0
-60.00000000000027,-40.00000000000018,40.00000000000018,30.000000000000135,-50.00000000000022,-0.0,-80.00000000000036,-140.00000000000063,-50.00000000000022,-20.00000000000009,-0.0,-0.0
-40.00000000000018,-20.00000000000009,30.000000000000135,10.000000000000044,-30.000000000000135,10.000000000000044,-40.00000000000018,-90.0000000000004,-30.000000000000135,-20.00000000000009,-0.0,-0.0
-20.00000000000009,-0.0,10.000000000000044,-0.0,-20.00000000000009,-0.0,-20.00000000000009,-50.00000000000022,-30.000000000000135,-20.00000000000009,-0.0,-0.0
-10.000000000000044,-0.0,-0.0,-0.0,-0.0,-0.0,-0.0,-30.000000000000135,-20.00000000000009,-20.00000000000009,-0.0,-0.0
-0.0,-0.0,-10.000000000000044,10.000000000000044,-0.0,-10.000000000000044,-0.0,-20.00000000000009,-0.0,-20.00000000000009,-10.000000000000044,-10.000000000000044
-10.000000000000044,-20.00000000000009,-20.00000000000009,20.00000000000009,-0.0,-20.00000000000009,10.000000000000044,-0.0,-0.0,-10.000000000000044,-10.000000000000044,-10.000000000000044
-10.000000000000044,-30.000000000000135,-20.00000000000009,20.00000000000009,-0.0,-30.000000000000135,10.000000000000044,10.000000000000044,10.000000000000044,-10.000000000000044,-10.000000000000044,-10.000000000000044
-10.000000000000044,-40.00000000000018,-20.00000000000009,20.00000000000009,-0.0,-30.000000000000135,20.00000000000009,30.000000000000135,30.000000000000135,-0.0,-10.000000000000044,-10.000000000000044
-10.000000000000044,-40.00000000000018,-30.000000000000135,20.00000000000009,-0.0,-30.000000000000135,20.00000000000009,40.00000000000018,30.000000000000135,-0.0,-10.000000000000044,-10.000000000000044
-0.0,-40.00000000000018,-30.000000000000135,20.00000000000009,10.000000000000044,-30.000000000000135,30.000000000000135,60.00000000000027,40.00000000000018,-0.0,-10.000000000000044,-10.000000000000044
-0.0,-40.00000000000018,-30.000000000000135,20.00000000000009,10.000000000000044,-30.000000000000135,30.000000000000135,70.00000000000031,50.00000000000022,10.000000000000044,-0.0,-10.000000000000044
-0.0,-40.00000000000018,-40.00000000000018,10.000000000000044,10.000000000000044,-40.00000000000018,30.000000000000135,80.00000000000036,60.00000000000027,20.00000000000009,-0.0,-0.0
-0.0,-40.00000000000018,-40.00000000000018,10.000000000000044,20.00000000000009,-40.00000000000018,30.000000000000135,90.0000000000004,70.00000000000031,20.00000000000009,-0.0,-0.0
-0.0,-40.00000000000018,-50.00000000000022,10.000000000000044,20.00000000000009,-40.00000000000018,40.00000000000018,100.00000000000044,90.0000000000004,30.000000000000135,-0.0,-0.0
10.000000000000044,-30.000000000000135,-50.00000000000022,10.000000000000044,30.000000000000135,-40.00000000000018,40.00000000000018,110.00000000000048,90.0000000000004,40.00000000000018,-0.0,-0.0
10.000000000000044,-30.000000000000135,-50.00000000000022,-0.0,30.000000000000135,-40.00000000000018,40.00000000000018,110.00000000000048,100.00000000000044,40.00000000000018,-0.0,-0.0
10.000000000000044,-30.000000000000135,-50.00000000000022,-0.0,30.000000000000135,-40.00000000000018,40.00000000000018,120.00000000000054,110.00000000000048,50.00000000000022,-0.0,-0.0
10.000000000000044,-30.000000000000135,-50.00000000000022,-0.0,30.000000000000135,-40.00000000000018,40.00000000000018,130.00000000000057,120.00000000000054,50.00000000000022,10.000000000000044,-0.0
10.000000000000044,-30.000000000000135,-50.00000000000022,-0.0,20.00000000000009,-40.00000000000018,40.00000000000018,140.00000000000063,120.00000000000054,60.00000000000027,10.000000000000044,-0.0
-0.0,-30.000000000000135,-40.00000000000018,-0.0,20.00000000000009,-30.000000000000135,40.00000000000018,150.00000000000065,130.00000000000057,70.00000000000031,10.000000000000044,-0.0
-0.0,-20.00000000000009,-30.000000000000135,-0.0,10.000000000000044,-20.00000000000009,40.00000000000018,160.0000000000007,140.00000000000063,80.00000000000036,20.00000000000009,-0.0
-0.0,-20.00000000000009,-20.00000000000009,-0.0,10.000000000000044,-20.00000000000009,40.00000000000018,160.0000000000007,150.00000000000065,90.0000000000004,20.00000000000009,-0.0
-0.0,-10.000000000000044,-10.000000000000044,-0.0,-0.0,-10.000000000000044,40.00000000000018,170.00000000000077,160.0000000000007,90.0000000000004,20.00000000000009,10.000000000000044
-0.0,-10.000000000000044,-20.00000000000009,-0.0,10.000000000000044,-10.000000000000044,50.00000000000022,180.0000000000008,170.00000000000077,100.00000000000044,20.00000000000009,10.000000000000044
-0.0,-10.000000000000044,-20.00000000000009,-0.0,10.000000000000044,-20.00000000000009,50.00000000000022,190.00000000000085,180.0000000000008,110.00000000000048,30.000000000000135,10.000000000000044
10.000000000000044,-10.000000000000044,-30.000000000000135,-0.0,20.00000000000009,-20.00000000000009,50.00000000000022,200.00000000000088,190.00000000000085,120.00000000000054,30.000000000000135,10.000000000000044
10.000000000000044,-10.000000000000044,-30.000000000000135,-0.0,20.00000000000009,-20.00000000000009,50.00000000000022,210.00000000000094,200.00000000000088,130.00000000000057,30.000000000000135,20.00000000000009
20.00000000000009,-10.000000000000044,-30.000000000000135,-0.0,20.00000000000009,-20.00000000000009,50.00000000000022,220.00000000000097,210.00000000000094,140.00000000000063,40.00000000000018,20.00000000000009
20.00000000000009,-10.000000000000044,-30.000000000000135,-10.000000000000044,30.000000000000135,-20.00000000000009,50.00000000000022,230.00000000000102,220.00000000000097,150.00000000000065,40.00000000000018,20.00000000000009
30.000000000000135,-0.0,-30.000000000000135,-10.000000000000044,30.000000000000135,-10.000000000000044,50.00000000000022,240.00000000000108,230.00000000000102,160.0000000000007,50.00000000000022,30.000000000000135
30.000000000000135,-0.0,-30.000000000000135,-20.00000000000009,30.000000000000135,-10.000000000000044,50.00000000000022,260.00000000000114,250.0000000000011,170.00000000000077,60.00000000000027,30.000000000000135
30.000000000000135,-0.0,-20.00000000000009,-20.00000000000009,30.000000000000135,-0.0,50.00000000000022,270.0000000000012,270.0000000000012,190.00000000000085,60.00000000000027,30.000000000000135
40.00000000000018,-0.0,-20.00000000000009,-20.00000000000009,30.000000000000135,-0.0,50.00000000000022,290.0000000000013,290.0000000000013,210.00000000000094,70.00000000000031,40.00000000000018
40.00000000000018,10.000000000000044,-20.00000000000009,-20.00000000000009,30.000000000000135,-0.0,60.00000000000027,310.00000000000136,320.0000000000014,220.00000000000097,80.00000000000036,50.00000000000022
40.00000000000018,10.000000000000044,-20.00000000000009,-30.000000000000135,30.000000000000135,-0.0,60.00000000000027,340.00000000000153,340.00000000000153,240.00000000000108,90.0000000000004,50.00000000000022
40.00000000000018,10.000000000000044,-20.00000000000009,-30.000000000000135,30.000000000000135,-0.0,70.00000000000031,360.0000000000016,370.00000000000165,270.0000000000012,100.00000000000044,60.00000000000027
50.00000000000022,10.000000000000044,-20.00000000000009,-40.00000000000018,30.000000000000135,-0.0,70.00000000000031,390.0000000000017,400.00000000000176,290.0000000000013,110.00000000000048,70.00000000000031
50.00000000000022,20.00000000000009,-20.00000000000009,-40.00000000000018,40.00000000000018,-0.0,80.00000000000036,410.0000000000018,430.00000000000193,320.0000000000014,120.00000000000054,70.00000000000031
60.00000000000027,30.000000000000135,-10.000000000000044,-50.00000000000022,30.000000000000135,10.000000000000044,80.00000000000036,440.00000000000193,460.00000000000205,340.00000000000153,140.00000000000063,80.00000000000036
60.00000000000027,40.00000000000018,-0.0,-60.00000000000027,30.000000000000135,20.00000000000009,80.00000000000036,470.0000000000021,490.00000000000216,370.00000000000165,150.00000000000065,90.0000000000004
70.00000000000031,50.00000000000022,-0.0,-70.00000000000031,30.000000000000135,30.000000000000135,80.00000000000036,510.0000000000023,530.0000000000024,410.0000000000018,160.0000000000007,100.00000000000044
70.00000000000031,60.00000000000027,-0.0,-80.00000000000036,30.000000000000135,40.00000000000018,80.00000000000036,540.0000000000024,560.0000000000025,440.00000000000193,180.0000000000008,110.00000000000048
80.00000000000036,80.00000000000036,-0.0,-90.0000000000004,40.00000000000018,40.00000000000018,80.00000000000036,570.0000000000025,600.0000000000026,470.0000000000021,200.00000000000088,120.00000000000054
100.00000000000044,90.0000000000004,-0.0,-100.00000000000044,40.00000000000018,40.00000000000018,80.00000000000036,600.0000000000026,640.0000000000028,510.0000000000023,210.00000000000094,130.00000000000057
110.00000000000048,100.00000000000044,-0.0,-110.00000000000048,50.00000000000022,50.00000000000022,80.00000000000036,640.0000000000028,670.000000000003,540.0000000000024,230.00000000000102,150.00000000000065
120.00000000000054,110.00000000000048,-0.0,-130.00000000000057,60.00000000000027,60.00000000000027,80.00000000000036,660.000000000003,710.0000000000032,580.0000000000026,260.00000000000114,160.0000000000007
130.00000000000057,120.00000000000054,-0.0,-140.00000000000063,60.00000000000027,70.00000000000031,70.00000000000031,690.0000000000031,740.0000000000033,610.0000000000027,280.00000000000125,180.0000000000008
140.00000000000063,140.00000000000063,10.000000000000044,-150.00000000000065,60.00000000000027,80.00000000000036,70.00000000000031,710.0000000000032,760.0000000000034,640.0000000000028,290.0000000000013,190.00000000000085
150.00000000000065,150.00000000000065,20.00000000000009,-170.00000000000077,60.00000000000027,90.0000000000004,60.00000000000027,730.0000000000033,780.0000000000034,670.000000000003,310.00000000000136,210.00000000000094
160.0000000000007,170.00000000000077,20.00000000000009,-180.0000000000008,60.00000000000027,110.00000000000048,50.00000000000022,750.0000000000033,800.0000000000035,690.0000000000031,330.0000000000015,220.00000000000097
170.00000000000077,190.00000000000085,30.000000000000135,-200.00000000000088,60.00000000000027,120.00000000000054,50.00000000000022,770.0000000000034,820.0000000000036,710.0000000000032,340.00000000000153,230.00000000000102
180.0000000000008,210.00000000000094,40.00000000000018,-210.00000000000094,60.00000000000027,130.00000000000057,40.00000000000018,770.0000000000034,830.0000000000036,730.0000000000033,360.0000000000016,250.0000000000011
190.00000000000085,230.00000000000102,50.00000000000022,-220.00000000000097,60.00000000000027,150.00000000000065,30.000000000000135,770.0000000000034,830.0000000000036,740.0000000000033,380.0000000000017,260.00000000000114
200.00000000000088,240.00000000000108,60.00000000000027,-230.00000000000102,60.00000000000027,160.0000000000007,20.00000000000009,760.0000000000034,810.0000000000036,740.0000000000033,390.0000000000017,280.00000000000125
200.00000000000088,260.00000000000114,70.00000000000031,-240.00000000000108,60.00000000000027,170.00000000000077,10.000000000000044,740.0000000000033,780.0000000000034,720.0000000000032,400.00000000000176,280.00000000000125
210.00000000000094,280.00000000000125,80.00000000000036,-250.0000000000011,60.00000000000027,180.0000000000008,10.000000000000044,710.0000000000032,740.0000000000033,700.0000000000031,400.00000000000176,290.0000000000013
210.00000000000094,290.0000000000013,90.0000000000004,-270.0000000000012,60.00000000000027,200.00000000000088,-0.0,670.000000000003,700.0000000000031,660.000000000003,390.0000000000017,280.00000000000125
220.00000000000097,310.00000000000136,100.00000000000044,-270.0000000000012,50.00000000000022,210.00000000000094,-0.0,620.0000000000027,640.0000000000028,620.0000000000027,380.0000000000017,270.0000000000012
210.00000000000094,320.0000000000014,100.00000000000044,-270.0000000000012,50.00000000000022,210.00000000000094,-0.0,570.0000000000025,580.0000000000026,560.0000000000025,360.0000000000016,250.0000000000011
210.00000000000094,330.0000000000015,110.00000000000048,-270.0000000000012,40.00000000000018,210.00000000000094,-10.000000000000044,510.0000000000023,510.0000000000023,500.0000000000022,330.0000000000015,230.00000000000102
190.00000000000085,320.0000000000014,110.00000000000048,-260.00000000000114,30.000000000000135,210.00000000000094,-10.000000000000044,450.000000000002,450.000000000002,440.00000000000193,300.0000000000013,210.00000000000094
180.0000000000008,310.00000000000136,110.00000000000048,-240.00000000000108,30.000000000000135,200.00000000000088,-10.000000000000044,390.0000000000017,380.0000000000017,380.0000000000017,260.00000000000114,190.00000000000085
160.0000000000007,290.0000000000013,100.00000000000044,-220.00000000000097,20.00000000000009,180.0000000000008,-10.000000000000044,340.00000000000153,320.0000000000014,320.0000000000014,230.00000000000102,160.0000000000007
140.00000000000063,270.0000000000012,90.0000000000004,-190.00000000000085,20.00000000000009,160.0000000000007,-0.0,290.0000000000013,270.0000000000012,260.00000000000114,190.00000000000085,130.00000000000057
120.00000000000054,240.00000000000108,80.00000000000036,-170.00000000000077,10.000000000000044,140.00000000000063,-0.0,240.00000000000108,220.00000000000097,210.00000000000094,160.0000000000007,110.00000000000048
100.00000000000044,210.00000000000094,70.00000000000031,-140.00000000000063,10.000000000000044,120.00000000000054,-0.0,190.00000000000085,170.00000000000077,170.00000000000077,130.00000000000057,90.0000000000004
80.00000000000036,180.0000000000008,70.00000000000031,-120.00000000000054,-0.0,110.00000000000048,-0.0,160.0000000000007,140.00000000000063,130.00000000000057,100.00000000000044,70.00000000000031
60.00000000000027,150.00000000000065,60.00000000000027,-100.00000000000044,-0.0,90.0000000000004,-0.0,130.00000000000057,110.00000000000048,100.00000000000044,80.00000000000036,50.00000000000022
40.00000000000018,130.00000000000057,60.00000000000027,-80.00000000000036,-0.0,80.00000000000036,-0.0,100.00000000000044,80.00000000000036,80.00000000000036,60.00000000000027,40.00000000000018
30.000000000000135,100.00000000000044,50.00000000000022,-60.00000000000027,-0.0,70.00000000000031,-0.0,80.00000000000036,60.00000000000027,50.00000000000022,40.00000000000018,20.00000000000009
20.00000000000009,80.00000000000036,40.00000000000018,-50.00000000000022,-0.0,50.00000000000022,-0.0,60.00000000000027,40.00000000000018,40.00000000000018,30.000000000000135,10.000000000000044
20.00000000000009,60.00000000000027,30.000000000000135,-40.00000000000018,-0.0,40.00000000000018,-0.0,50.00000000000022,30.000000000000135,30.000000000000135,20.00000000000009,-0.0
10.000000000000044,50.00000000000022,10.000000000000044,-30.000000000000135,-0.0,20.00000000000009,-0.0,40.00000000000018,20.00000000000009,20.00000000000009,20.00000000000009,-0.0
10.000000000000044,30.000000000000135,10.000000000000044,-20.00000000000009,-0.0,20.00000000000009,-0.0,30.000000000000135,10.000000000000044,10.000000000000044,10.000000000000044,-0.0
10.000000000000044,30.000000000000135,-0.0,-20.00000000000009,-0.0,10.000000000000044,-0.0,20.00000000000009,10.000000000000044,10.000000000000044,-0.0,-0.0
10.000000000000044,20.00000000000009,-0.0,-10.000000000000044,-0.0,10.000000000000044,-0.0,20.00000000000009,-0.0,-0.0,-0.0,-0.0
-0.0,10.000000000000044,-0.0,-10.000000000000044,-0.0,-0.0,-0.0,10.000000000000044,-0.0,-0.0,-0.0,-0.0
-0.0,10.000000000000044,-0.0,-0.0,-0.0,-0.0,-0.0,10.000000000000044,-0.0,-0.0,-0.0,-0.0
-0.0,-0.0,-0.0,-0.0,-0.0,-0.0,-0.0,10.000000000000044,-0.0,-0.0,-0.0,-0.0
-0.0,-0.0,-0.0,-0.0,-0.0,-0.0,-0.0,10.000000000000044,-0.0,-0.0,-0.0,-0.0
-0.0,-0.0,-0.0,-0.0,-0.0,-0.0,-0.0,10.000000000000044,-0.0,-0.0,-0.0,-0.0
-0.0,-0.0,-0.0,-0.0,-0.0,-0.0,-0.0,-0.0,-0.0,-0.0,-0.0,-10.000000000000044
-0.0,-0.0,-0.0,-0.0,-0.0,-0.0,-0.0,-0.0,-0.0,-0.0,-0.0,-10.000000000000044
-0.0,-0.0,-0.0,-0.0,-0.0,-0.0,-0.0,-0.0,-0.0,-0.0,-0.0,-10.000000000000044
-0.0,-0.0,-0.0,-0.0,-0.0,-0.0,-0.0,-0.0,-0.0,-0.0,-0.0,-10.000000000000044
-0.0,-0.0,-0.0,-0.0,-0.0,-0.0,-0.0,-0.0,-0.0,-0.0,-0.0,-0.0
-0.0,-0.0,-0.0,-0.0,-0.0,-0.0,-0.0,-0.0,-0.0,-0.0,-0.0,-0.0
-0.0,-0.0,-0.0,-0.0,-0.0,-0.0,-0.0,10.000000000000044,-0.0,-0.0,-0.0,-0.0
-0.0,-0.0,-0.0,-0.0,-0.0,-0.0,-0.0,10.000000000000044,-0.0,-0.0,-0.0,-0.0
-0.0,-0.0,-0.0,-0.0,-0.0,-0.0,-0.0,-0.0,-0.0,-0.0,-0.0,-0.0
-0.0,-0.0,-0.0,-0.0,-0.0,-0.0,-10.000000000000044,-0.0,-0.0,-0.0,-0.0,-0.0
-0.0,-0.0,-0.0,-0.0,-0.0,-0.0,-10.000000000000044,-0.0,-0.0,-0.0,-0.0,-0.0
-0.0,-0.0,-0.0,-0.0,-0.0,-0.0,-10.000000000000044,10.000000000000044,-0.0,-0.0,-0.0,-0.0
-0.0,-0.0,-0.0,-0.0,-0.0,-0.0,-10.000000000000044,10.000000000000044,-0.0,-0.0,-0.0,-0.0
-0.0,-0.0,-0.0,-0.0,-0.0,-0.0,-0.0,10.000000000000044,-0.0,-0.0,-0.0,-0.0
-0.0,-0.0,-0.0,-0.0,-0.0,-0.0,-0.0,10.000000000000044,-0.0,-0.0,-0.0,-0.0
-0.0,-0.0,-0.0,-0.0,-0.0,-0.0,-0.0,20.00000000000009,-0.0,-0.0,-0.0,-0.0
-0.0,-0.0,-0.0,-0.0,-0.0,-0.0,-0.0,20.00000000000009,-0.0,-0.0,-0.0,-0.0
-0.0,-0.0,-0.0,-0.0,-0.0,-0.0,-0.0,20.00000000000009,-0.0,-0.0,-0.0,-0.0
-0.0,-0.0,-0.0,-0.0,-0.0,-0.0,-0.0,20.00000000000009,-0.0,-0.0,-0.0,-0.0
-0.0,-0.0,-0.0,-0.0,-0.0,-0.0,-0.0,20.00000000000009,-0.0,-0.0,-0.0,-0.0
-0.0,-0.0,-0.0,-0.0,-0.0,-0.0,-0.0,20.00000000000009,-0.0,-0.0,-0.0,-0.0
-0.0,-0.0,-0.0,-0.0,-0.0,-0.0,-0.0,20.00000000000009,10.000000000000044,-0.0,-0.0,-0.0
-0.0,-0.0,-0.0,-0.0,-0.0,-0.0,-0.0,20.00000000000009,10.000000000000044,10.000000000000044,-0.0,10.000000000000044
-0.0,-0.0,-0.0,-0.0,-0.0,-0.0,-0.0,30.000000000000135,10.000000000000044,10.000000000000044,-0.0,10.000000000000044
-0.0,-0.0,-0.0,-0.0,-0.0,-0.0,-0.0,20.00000000000009,10.000000000000044,10.000000000000044,-0.0,10.000000000000044
-0.0,-0.0,-0.0,-0.0,-0.0,-0.0,-0.0,20.00000000000009,10.000000000000044,-0.0,-0.0,10.000000000000044
-0.0,-0.0,-0.0,-0.0,-0.0,-0.0,-0.0,20.00000000000009,10.000000000000044,-0.0,-0.0,10.000000000000044
-0.0,-0.0,-0.0,-0.0,-0.0,-0.0,-0.0,20.00000000000009,10.000000000000044,-0.0,-0.0,10.000000000000044
-0.0,-0.0,-0.0,-0.0,-0.0,-0.0,-0.0,20.00000000000009,-0.0,-0.0,-0.0,10.000000000000044
-0.0,-0.0,-0.0,-0.0,-0.0,-0.0,-0.0,20.00000000000009,-0.0,-0.0,-0.0,10.000000000000044
-0.0,-0.0,-0.0,-0.0,-0.0,-0.0,-0.0,20.00000000000009,-0.0,-0.0,-0.0,10.000000000000044
-0.0,-0.0,-0.0,-0.0,-0.0,-0.0,-0.0,20.00000000000009,-0.0,-0.0,-0.0,10.000000000000044
-0.0,-0.0,-0.0,-0.0,-0.0,-0.0,-0.0,20.00000000000009,-0.0,-0.0,-0.0,10.000000000000044
-0.0,-0.0,-0.0,-0.0,-0.0,-0.0,-0.0,20.00000000000009,-0.0,-0.0,-0.0,10.000000000000044
-0.0,-0.0,-0.0,-0.0,-0.0,-0.0,-0.0,20.00000000000009,-0.0,-0.0,-0.0,10.000000000000044
-0.0,-0.0,-0.0,-0.0,-0.0,-0.0,-0.0,20.00000000000009,-0.0,-0.0,-0.0,10.000000000000044
-0.0,-0.0,-0.0,-0.0,-0.0,-0.0,-0.0,20.00000000000009,-0.0,-0.0,-0.0,-0.0
-0.0,-0.0,-0.0,-0.0,-0.0,-0.0,-0.0,10.000000000000044,-0.0,-0.0,-0.0,-0.0
-0.0,-0.0,10.000000000000044,-0.0,-0.0,-0.0,-0.0,10.000000000000044,-0.0,-0.0,-0.0,-0.0
-0.0,-0.0,10.000000000000044,-0.0,-0.0,-0.0,-0.0,10.000000000000044,-0.0,-0.0,-0.0,-0.0
-0.0,-0.0,10.000000000000044,-0.0,-0.0,10.000000000000044,-0.0,10.000000000000044,-0.0,-0.0,-0.0,-0.0
-0.0,-0.0,10.000000000000044,-0.0,-10.000000000000044,10.000000000000044,-0.0,10.000000000000044,-0.0,-0.0,-0.0,-0.0
-0.0,-0.0,10.000000000000044,-0.0,-10.000000000000044,10.000000000000044,-0.0,10.000000000000044,-0.0,-0.0,-0.0,-0.0
-0.0,-0.0,10.000000000000044,-0.0,-0.0,10.000000000000044,-0.0,-0.0,-0.0,-0.0,-0.0,-0.0
-0.0,-0.0,-0.0,-0.0,-0.0,-0.0,-0.0,-0.0,-0.0,-0.0,-0.0,-0.0
-0.0,-0.0,-0.0,-0.0,-0.0,-0.0,-0.0,-0.0,-10.000000000000044,-0.0,-0.0,-0.0
-0.0,-0.0,10.000000000000044,-0.0,-0.0,10.000000000000044,-0.0,-0.0,-10.000000000000044,-0.0,-0.0,-0.0
-0.0,10.000000000000044,10.000000000000044,-0.0,-0.0,-0.0,-0.0,-0.0,-10.000000000000044,-0.0,-0.0,-0.0
-0.0,-0.0,10.000000000000044,-0.0,-0.0,-0.0,-0.0,-0.0,-10.000000000000044,-10.000000000000044,-0.0,-0.0
-0.0,-0.0,10.000000000000044,-0.0,-10.000000000000044,-0.0,-0.0,-0.0,-10.000000000000044,-10.000000000000044,-0.0,-0.0
-10.000000000000044,-0.0,10.000000000000044,-0.0,-10.000000000000044,10.000000000000044,-0.0,-0.0,-10.000000000000044,-10.000000000000044,-10.000000000000044,-0.0
-10.000000000000044,-0.0,10.000000000000044,-0.0,-10.000000000000044,10.000000000000044,-0.0,-0.0,-10.000000000000044,-10.000000000000044,-10.000000000000044,-0.0
-10.000000000000044,-0.0,10.000000000000044,-0.0,-10.000000000000044,-0.0,-0.0,-0.0,-10.000000000000044,-10.000000000000044,-10.000000000000044,-0.0
-0.0,-0.0,10.000000000000044,-0.0,-0.0,-0.0,-0.0,-0.0,-10.000000000000044,-10.000000000000044,-10.000000000000044,-0.0
-0.0,-0.0,-0.0,-0.0,-0.0,-0.0,-0.0,-0.0,-10.000000000000044,-10.000000000000044,-10.000000000000044,-0.0
-0.0,-0.0,-0.0,-0.0,-0.0,-0.0,-0.0,-0.0,-10.000000000000044,-10.000000000000044,-0.0,-0.0
-0.0,-0.0,-0.0,-0.0,-0.0,-0.0,-0.0,-0.0,-10.000000000000044,-10.000000000000044,-0.0,-0.0
10.000000000000044,-0.0,-0.0,-0.0,-0.0,-0.0,-0.0,-0.0,-0.0,-10.000000000000044,-0.0,-0.0
-0.0,-0.0,-10.000000000000044,-0.0,-0.0,-0.0,-0.0,-0.0,-0.0,-10.000000000000044,-0.0,-0.0
-0.0,-0.0,-10.000000000000044,-0.0,-0.0,-0.0,-0.0,-0.0,-0.0,-10.000000000000044,-10.000000000000044,-0.0
-0.0,-0.0,-10.000000000000044,-0.0,-0.0,-10.000000000000044,-0.0,-0.0,-0.0,-10.000000000000044,-10.000000000000044,-0.0
-0.0,-10.000000000000044,-10.000000000000044,-0.0,-0.0,-10.000000000000044,-0.0,-0.0,-0.0,-0.0,-10.000000000000044,-0.0
-10.000000000000044,-10.000000000000044,-0.0,10.000000000000044,-0.0,-10.000000000000044,-0.0,-0.0,-0.0,-0.0,-10.000000000000044,-0.0
-10.000000000000044,-20.00000000000009,-0.0,10.000000000000044,-0.0,-10.000000000000044,-0.0,-0.0,-0.0,-0.0,-10.000000000000044,-0.0
-10.000000000000044,-20.00000000000009,-0.0,10.000000000000044,-0.0,-10.000000000000044,-0.0,-0.0,-0.0,-0.0,-0.0,-0.0
-10.000000000000044,-20.00000000000009,-0.0,10.000000000000044,-0.0,-10.000000000000044,-0.0,-0.0,-10.000000000000044,-0.0,-0.0,-0.0
-10.000000000000044,-20.00000000000009,-0.0,10.000000000000044,-0.0,-10.000000000000044,-0.0,-0.0,-10.000000000000044,-0.0,-0.0,-0.0
-10.000000000000044,-20.00000000000009,-0.0,10.000000000000044,-0.0,-0.0,-0.0,-0.0,-10.000000000000044,-0.0,-10.000000000000044,-0.0
-10.000000000000044,-10.000000000000044,-0.0,10.000000000000044,-0.0,-0.0,-0.0,-0.0,-10.000000000000044,-10.000000000000044,-10.000000000000044,-0.0
-10.000000000000044,-10.000000000000044,-0.0,10.000000000000044,-0.0,-0.0,-0.0,-0.0,-10.000000000000044,-10.000000000000044,-10.000000000000044,-10.000000000000044
-10.000000000000044,-10.000000000000044,-0.0,10.000000000000044,-10.000000000000044,-0.0,-0.0,-0.0,-10.000000000000044,-10.000000000000044,-10.000000000000044,-10.000000000000044
-10.000000000000044,-10.000000000000044,-0.0,10.000000000000044,-0.0,-0.0,-0.0,-0.0,-10.000000000000044,-10.000000000000044,-10.000000000000044,-10.000000000000044
-10.000000000000044,-10.000000000000044,-0.0,10.000000000000044,-0.0,-0.0,-0.0,-0.0,-20.00000000000009,-10.000000000000044,-10.000000000000044,-10.000000000000044
-0.0,-10.000000000000044,-0.0,10.000000000000044,-0.0,-10.000000000000044,-0.0,-0.0,-20.00000000000009,-10.000000000000044,-10.000000000000044,-10.000000000000044
-0.0,-10.000000000000044,-10.000000000000044,-0.0,-0.0,-10.000000000000044,-0.0,-0.0,-10.000000000000044,-10.000000000000044,-10.000000000000044,-10.000000000000044
-0.0,-10.000000000000044,-10.000000000000044,-0.0,-0.0,-10.000000000000044,-0.0,-0.0,-10.000000000000044,-10.000000000000044,-10.000000000000044,-0.0
-0.0,-10.000000000000044,-10.000000000000044,-0.0,-0.0,-0.0,-0.0,-0.0,-10.000000000000044,-10.000000000000044,-0.0,-0.0
-0.0,-0.0,-0.0,-0.0,-0.0,-0.0,-0.0,-0.0,-10.000000000000044,-10.000000000000044,-0.0,-0.0
-0.0,-0.0,-0.0,-0.0,-0.0,-0.0,-0.0,-0.0,-10.000000000000044,-10.000000000000044,-10.000000000000044,-0.0
-0.0,-0.0,-10.000000000000044,-0.0,-0.0,-10.000000000000044,-0.0,-0.0,-10.000000000000044,-10.000000000000044,-10.000000000000044,-10.000000000000044
-0.0,-10.000000000000044,-10.000000000000044,-0.0,-0.0,-10.000000000000044,-0.0,-0.0,-10.000000000000044,-20.00000000000009,-10.000000000000044,-10.000000000000044
-0.0,-10.000000000000044,-10.000000000000044,-0.0,-0.0,-10.000000000000044,-0.0,-10.000000000000044,-10.000000000000044,-20.00000000000009,-10.000000000000044,-10.000000000000044
-0.0,-10.000000000000044,-10.000000000000044,10.000000000000044,-0.0,-10.000000000000044,-0.0,-10.000000000000044,-10.000000000000044,-20.00000000000009,-10.000000000000044,-10.000000000000044
-0.0,-10.000000000000044,-10.000000000000044,10.000000000000044,-0.0,-10.000000000000044,-0.0,-10.000000000000044,-10.000000000000044,-20.00000000000009,-10.000000000000044,-10.000000000000044
-0.0,-10.000000000000044,-10.000000000000044,-0.0,-0.0,-10.000000000000044,-0.0,-10.000000000000044,-10.000000000000044,-20.00000000000009,-10.000000000000044,-10.000000000000044
-0.0,-10.000000000000044,-0.0,-0.0,-0.0,-0.0,-0.0,-10.000000000000044,-10.000000000000044,-20.00000000000009,-10.000000000000044,-20.00000000000009
-0.0,-0.0,-0.0,-0.0,-0.0,-0.0,-0.0,-10.000000000000044,-10.000000000000044,-20.00000000000009,-10.000000000000044,-20.00000000000009
-0.0,-0.0,-0.0,-0.0,-0.0,-0.0,-0.0,-10.000000000000044,-10.000000000000044,-20.00000000000009,-10.000000000000044,-20.00000000000009
-0.0,-0.0,-0.0,-0.0,-0.0,-0.0,-0.0,-10.000000000000044,-10.000000000000044,-10.000000000000044,-10.000000000000044,-10.000000000000044
-0.0,-0.0,-0.0,-0.0,-0.0,-0.0,-0.0,-10.000000000000044,-20.00000000000009,-10.000000000000044,-10.000000000000044,-10.000000000000044
-0.0,-0.0,-0.0,-0.0,-0.0,-0.0,-0.0,-0.0,-20.00000000000009,-10.000000000000044,-10.000000000000044,-10.000000000000044
-0.0,-0.0,-0.0,-0.0,-0.0,-0.0,-0.0,-10.000000000000044,-20.00000000000009,-10.000000000000044,-10.000000000000044,-10.000000000000044
-0.0,-10.000000000000044,-0.0,-0.0,-0.0,-0.0,-0.0,-10.000000000000044,-20.00000000000009,-10.000000000000044,-10.000000000000044,-10.000000000000044
-0.0,-10.000000000000044,-0.0,-0.0,-0.0,-0.0,-0.0,-10.000000000000044,-20.00000000000009,-10.000000000000044,-10.000000000000044,-10.000000000000044
-0.0,-10.000000000000044,-0.0,-0.0,-0.0,-0.0,-0.0,-10.000000000000044,-20.00000000000009,-10.000000000000044,-10.000000000000044,-10.000000000000044
-0.0,-10.000000000000044,-0.0,-0.0,-0.0,-0.0,-0.0,-0.0,-10.000000000000044,-10.000000000000044,-10.000000000000044,-10.000000000000044
-0.0,-10.000000000000044,-10.000000000000044,-0.0,-0.0,-10.000000000000044,-0.0,-0.0,-10.000000000000044,-0.0,-0.0,-10.000000000000044
-0.0,-10.000000000000044,-10.000000000000044,-0.0,-0.0,-10.000000000000044,-0.0,-0.0,-0.0,-0.0,-0.0,-0.0
-0.0,-10.000000000000044,-10.000000000000044,-0.0,-0.0,-0.0,-0.0,-0.0,-0.0,-0.0,-0.0,-0.0
-0.0,-0.0,-10.000000000000044,-0.0,-0.0,-0.0,-0.0,-0.0,-0.0,-0.0,-0.0,-0.0
-0.0,-0.0,-0.0,-0.0,-0.0,-0.0,-0.0,-0.0,-0.0,-0.0,-0.0,-0.0
-0.0,-0.0,-0.0,-0.0,-0.0,-0.0,-0.0,-0.0,-0.0,-0.0,-0.0,-0.0
-10.000000000000044,-0.0,-0.0,-0.0,-10.000000000000044,-0.0,10.000000000000044,-0.0,-0.0,-0.0,-0.0,-0.0
-10.000000000000044,-0.0,10.000000000000044,-0.0,-10.000000000000044,-0.0,10.000000000000044,10.000000000000044,-0.0,-0.0,-0.0,-0.0
-10.000000000000044,-0.0,-0.0,-0.0,-10.000000000000044,-0.0,10.000000000000044,10.000000000000044,10.000000000000044,10.000000000000044,-0.0,-0.0
-10.000000000000044,-0.0,-0.0,-0.0,-0.0,-0.0,10.000000000000044,20.00000000000009,10.000000000000044,20.00000000000009,10.000000000000044,10.000000000000044
-0.0,-0.0,-10.000000000000044,-0.0,-0.0,-10.000000000000044,-0.0,20.00000000000009,20.00000000000009,20.00000000000009,20.00000000000009,20.00000000000009
-0.0,-10.000000000000044,-20.00000000000009,-0.0,-0.0,-20.00000000000009,-10.000000000000044,20.00000000000009,20.00000000000009,20.00000000000009,30.000000000000135,30.000000000000135
-0.0,-10.000000000000044,-30.000000000000135,-0.0,10.000000000000044,-20.00000000000009,-20.00000000000009,10.000000000000044,20.00000000000009,30.000000000000135,40.00000000000018,40.00000000000018
-0.0,-20.00000000000009,-30.000000000000135,-0.0,20.00000000000009,-20.00000000000009,-30.000000000000135,10.000000000000044,20.00000000000009,30.000000000000135,40.00000000000018,50.00000000000022
-0.0,-20.00000000000009,-30.000000000000135,-0.0,10.000000000000044,-20.00000000000009,-40.00000000000018,-0.0,10.000000000000044,20.00000000000009,50.00000000000022,50.00000000000022
-0.0,-20.00000000000009,-20.00000000000009,-0.0,-0.0,-20.00000000000009,-40.00000000000018,-0.0,10.000000000000044,20.00000000000009,40.00000000000018,50.00000000000022
-0.0,-20.00000000000009,-10.000000000000044,-0.0,-0.0,-10.000000000000044,-40.00000000000018,-0.0,-0.0,20.00000000000009,40.00000000000018,40.00000000000018
-0.0,-10.000000000000044,-0.0,-0.0,-0.0,-0.0,-30.000000000000135,-0.0,-0.0,10.000000000000044,30.000000000000135,40.00000000000018
-10.000000000000044,-10.000000000000044,-0.0,-0.0,-0.0,-0.0,-30.000000000000135,-0.0,-0.0,-0.0,30.000000000000135,30.000000000000135
-10.000000000000044,-10.000000000000044,-0.0,10.000000000000044,-0.0,-0.0,-20.00000000000009,-10.000000000000044,-0.0,-0.0,20.00000000000009,20.00000000000009
-10.000000000000044,-10.000000000000044,-0.0,10.000000000000044,-0.0,-0.0,-20.00000000000009,-10.000000000000044,-10.000000000000044,-0.0,10.000000000000044,20.00000000000009
-10.000000000000044,-10.000000000000044,-0.0,-0.0,-0.0,-0.0,-20.00000000000009,-20.00000000000009,-20.00000000000009,-10.000000000000044,10.000000000000044,10.000000000000044
-0.0,-0.0,-0.0,-0.0,-0.0,-0.0,-10.000000000000044,-20.00000000000009,-20.00000000000009,-20.00000000000009,-0.0,-0.0
-0.0,-0.0,10.000000000000044,-0.0,-0.0,-0.0,-10.000000000000044,-30.000000000000135,-30.000000000000135,-30.000000000000135,-0.0,-0.0
-0.0,-0.0,10.000000000000044,-0.0,-10.000000000000044,10.000000000000044,-10.000000000000044,-30.000000000000135,-30.000000000000135,-30.000000000000135,-10.000000000000044,-10.000000000000044
-0.0,10.000000000000044,20.00000000000009,-10.000000000000044,-10.000000000000044,20.00000000000009,-0.0,-30.000000000000135,-30.000000000000135,-30.000000000000135,-10.000000000000044,-20.00000000000009
-0.0,20.00000000000009,40.00000000000018,-20.00000000000009,-20.00000000000009,30.000000000000135,-0.0,-30.000000000000135,-30.000000000000135,-30.000000000000135,-20.00000000000009,-20.00000000000009
-0.0,30.000000000000135,50.00000000000022,-20.00000000000009,-20.00000000000009,50.00000000000022,-0.0,-30.000000000000135,-30.000000000000135,-40.00000000000018,-20.00000000000009,-20.00000000000009
-0.0,50.00000000000022,50.00000000000022,-30.000000000000135,-20.00000000000009,60.00000000000027,-0.0,-30.000000000000135,-30.000000000000135,-40.00000000000018,-20.00000000000009,-20.00000000000009
-0.0,60.00000000000027,60.00000000000027,-40.00000000000018,-20.00000000000009,60.00000000000027,-0.0,-30.000000000000135,-30.000000000000135,-40.00000000000018,-20.00000000000009,-20.00000000000009
10.000000000000044,70.00000000000031,60.00000000000027,-50.00000000000022,-20.00000000000009,70.00000000000031,-0.0,-30.000000000000135,-30.000000000000135,-40.00000000000018,-20.00000000000009,-20.00000000000009
10.000000000000044,80.00000000000036,70.00000000000031,-50.00000000000022,-20.00000000000009,80.00000000000036,-0.0,-30.000000000000135,-30.000000000000135,-40.00000000000018,-20.00000000000009,-20.00000000000009
20.00000000000009,90.0000000000004,70.00000000000031,-60.00000000000027,-20.00000000000009,80.00000000000036,-0.0,-30.000000000000135,-30.000000000000135,-40.00000000000018,-30.000000000000135,-30.000000000000135
30.000000000000135,100.00000000000044,80.00000000000036,-70.00000000000031,-20.00000000000009,90.0000000000004,-0.0,-30.000000000000135,-30.000000000000135,-40.00000000000018,-30.000000000000135,-30.000000000000135
30.000000000000135,110.00000000000048,80.00000000000036,-80.00000000000036,-20.00000000000009,100.00000000000044,-0.0,-40.00000000000018,-30.000000000000135,-50.00000000000022,-40.00000000000018,-40.00000000000018
40.00000000000018,120.00000000000054,90.0000000000004,-90.0000000000004,-20.00000000000009,110.00000000000048,-0.0,-40.00000000000018,-30.000000000000135,-50.00000000000022,-40.00000000000018,-40.00000000000018
40.00000000000018,130.00000000000057,90.0000000000004,-90.0000000000004,-20.00000000000009,110.00000000000048,-0.0,-40.00000000000018,-30.000000000000135,-40.00000000000018,-40.00000000000018,-40.00000000000018
40.00000000000018,130.00000000000057,80.00000000000036,-80.00000000000036,-10.000000000000044,100.00000000000044,-0.0,-40.00000000000018,-30.000000000000135,-40.00000000000018,-40.00000000000018,-40.00000000000018
40.00000000000018,120.00000000000054,70.00000000000031,-80.00000000000036,-10.000000000000044,90.0000000000004,-0.0,-40.00000000000018,-30.000000000000135,-40.00000000000018,-40.00000000000018,-40.00000000000018
40.00000000000018,110.00000000000048,60.00000000000027,-70.00000000000031,-0.0,80.00000000000036,-0.0,-30.000000000000135,-30.000000000000135,-40.00000000000018,-50.00000000000022,-40.00000000000018
40.00000000000018,100.00000000000044,50.00000000000022,-70.00000000000031,-0.0,70.00000000000031,10.000000000000044,-30.000000000000135,-30.000000000000135,-50.00000000000022,-50.00000000000022,-40.00000000000018
30.000000000000135,90.0000000000004,50.00000000000022,-60.00000000000027,-0.0,60.00000000000027,20.00000000000009,-20.00000000000009,-20.00000000000009,-40.00000000000018,-60.00000000000027,-50.00000000000022
20.00000000000009,80.00000000000036,50.00000000000022,-50.00000000000022,-10.000000000000044,60.00000000000027,40.00000000000018,-0.0,10.000000000000044,-20.00000000000009,-60.00000000000027,-50.00000000000022
-0.0,70.00000000000031,50.00000000000022,-40.00000000000018,-10.000000000000044,50.00000000000022,50.00000000000022,20.00000000000009,70.00000000000031,30.000000000000135,-60.00000000000027,-50.00000000000022
-0.0,60.00000000000027,40.00000000000018,-20.00000000000009,-10.000000000000044,40.00000000000018,50.00000000000022,60.00000000000027,170.00000000000077,140.00000000000063,-20.00000000000009,-20.00000000000009
-0.0,40.00000000000018,20.00000000000009,-10.000000000000044,-10.000000000000044,20.00000000000009,20.00000000000009,100.00000000000044,280.00000000000125,300.0000000000013,50.00000000000022,40.00000000000018
-0.0,20.00000000000009,-0.0,-0.0,-10.000000000000044,-0.0,-30.000000000000135,130.00000000000057,370.00000000000165,490.00000000000216,160.0000000000007,120.00000000000054
-0.0,-0.0,-0.0,-0.0,-0.0,-0.0,-100.00000000000044,90.0000000000004,420.0000000000019,680.0000000000031,290.0000000000013,230.00000000000102
-0.0,-10.000000000000044,-10.000000000000044,10.000000000000044,-0.0,-20.00000000000009,-210.00000000000094,-20.00000000000009,360.0000000000016,800.0000000000035,430.00000000000193,330.0000000000015
-0.0,-20.00000000000009,-20.00000000000009,10.000000000000044,-0.0,-20.00000000000009,-320.0000000000014,-210.00000000000094,210.00000000000094,790.0000000000035,540.0000000000024,410.0000000000018
-10.000000000000044,-30.000000000000135,-20.00000000000009,20.00000000000009,-0.0,-30.000000000000135,-420.0000000000019,-460.00000000000205,-30.000000000000135,650.0000000000028,580.0000000000026,450.000000000002
-10.000000000000044,-40.00000000000018,-20.00000000000009,20.00000000000009,-0.0,-30.000000000000135,-490.00000000000216,-740.0000000000033,-290.0000000000013,410.0000000000018,530.0000000000024,410.0000000000018
-10.000000000000044,-40.00000000000018,-20.00000000000009,30.000000000000135,-0.0,-30.000000000000135,-520.0000000000023,-960.0000000000043,-530.0000000000024,120.00000000000054,420.0000000000019,340.00000000000153
-10.000000000000044,-40.00000000000018,-30.000000000000135,30.000000000000135,-0.0,-30.000000000000135,-500.0000000000022,-1090.0000000000048,-680.0000000000031,-140.00000000000063,260.00000000000114,230.00000000000102
-10.000000000000044,-40.00000000000018,-30.000000000000135,30.000000000000135,-0.0,-40.00000000000018,-450.000000000002,-1110.000000000005,-720.0000000000032,-310.00000000000136,100.00000000000044,120.00000000000054
-10.000000000000044,-50.00000000000022,-40.00000000000018,30.000000000000135,10.000000000000044,-40.00000000000018,-390.0000000000017,-1000.0000000000044,-640.0000000000028,-380.0000000000017,-20.00000000000009,40.00000000000018
-0.0,-50.00000000000022,-50.00000000000022,30.000000000000135,10.000000000000044,-50.00000000000022,-320.0000000000014,-820.0000000000036,-500.0000000000022,-330.0000000000015,-80.00000000000036,-10.000000000000044
-0.0,-50.00000000000022,-50.00000000000022,30.000000000000135,20.00000000000009,-50.00000000000022,-260.00000000000114,-620.0000000000027,-340.00000000000153,-230.00000000000102,-100.00000000000044,-20.00000000000009
-0.0,-50.00000000000022,-50.00000000000022,30.000000000000135,10.000000000000044,-50.00000000000022,-200.00000000000088,-430.00000000000193,-210.00000000000094,-130.00000000000057,-70.00000000000031,-10.000000000000044
-10.000000000000044,-50.00000000000022,-40.00000000000018,30.000000000000135,10.000000000000044,-50.00000000000022,-140.00000000000063,-280.00000000000125,-110.00000000000048,-60.00000000000027,-30.000000000000135,-0.0
-20.00000000000009,-50.00000000000022,-30.000000000000135,30.000000000000135,-0.0,-40.00000000000018,-90.0000000000004,-170.00000000000077,-60.00000000000027,-20.00000000000009,-0.0,-0.0
-30.000000000000135,-50.00000000000022,-20.00000000000009,40.00000000000018,-0.0,-40.00000000000018,-50.00000000000022,-100.00000000000044,-50.00000000000022,-20.00000000000009,-0.0,-0.0
-40.00000000000018,-50.00000000000022,-20.00000000000009,40.00000000000018,-0.0,-40.00000000000018,-20.00000000000009,-60.00000000000027,-30.000000000000135,-20.00000000000009,-0.0,-0.0
-40.00000000000018,-60.00000000000027,-20.00000000000009,50.00000000000022,-0.0,-40.00000000000018,-0.0,-40.00000000000018,-30.000000000000135,-20.00000000000009,-10.000000000000044,-0.0
-40.00000000000018,-70.00000000000031,-30.000000000000135,50.00000000000022,-0.0,-50.00000000000022,10.000000000000044,-20.00000000000009,-20.00000000000009,-20.00000000000009,-10.000000000000044,-10.000000000000044
-20.00000000000009,-70.00000000000031,-30.000000000000135,40.00000000000018,-0.0,-50.00000000000022,10.000000000000044,-0.0,-0.0,-20.00000000000009,-20.00000000000009,-10.000000000000044
10.000000000000044,-60.00000000000027,-30.000000000000135,10.000000000000044,10.000000000000044,-30.000000000000135,20.00000000000009,10.000000000000044,10.000000000000044,-0.0,-20.00000000000009,-20.00000000000009
50.00000000000022,-30.000000000000135,-30.000000000000135,-40.00000000000018,30.000000000000135,-0.0,30.000000000000135,30.000000000000135,30.000000000000135,-0.0,-10.000000000000044,-20.00000000000009
100.00000000000044,20.00000000000009,-0.0,-110.00000000000048,50.00000000000022,50.00000000000022,30.000000000000135,40.00000000000018,40.00000000000018,-0.0,-10.000000000000044,-10.000000000000044
160.0000000000007,100.00000000000044,40.00000000000018,-190.00000000000085,60.00000000000027,120.00000000000054,40.00000000000018,60.00000000000027,50.00000000000022,10.000000000000044,-0.0,-10.000000000000044
210.00000000000094,210.00000000000094,90.0000000000004,-260.00000000000114,50.00000000000022,200.00000000000088,40.00000000000018,70.00000000000031,60.00000000000027,20.00000000000009,-0.0,-10.000000000000044
230.00000000000102,310.00000000000136,150.00000000000065,-310.00000000000136,30.000000000000135,260.00000000000114,40.00000000000018,90.0000000000004,60.00000000000027,30.000000000000135,-0.0,-10.000000000000044
200.00000000000088,370.00000000000165,190.00000000000085,-300.0000000000013,-0.0,290.0000000000013,40.00000000000018,100.00000000000044,70.00000000000031,30.000000000000135,-0.0,-10.000000000000044
140.00000000000063,390.0000000000017,210.00000000000094,-250.0000000000011,-30.000000000000135,270.0000000000012,40.00000000000018,100.00000000000044,80.00000000000036,40.00000000000018,-0.0,-10.000000000000044
60.00000000000027,350.00000000000153,190.00000000000085,-160.0000000000007,-60.00000000000027,220.00000000000097,40.00000000000018,110.00000000000048,90.0000000000004,40.00000000000018,-0.0,-10.000000000000044
-20.00000000000009,260.00000000000114,160.0000000000007,-70.00000000000031,-90.0000000000004,160.0000000000007,40.00000000000018,110.00000000000048,100.00000000000044,40.00000000000018,-0.0,-10.000000000000044
-80.00000000000036,150.00000000000065,130.00000000000057,10.000000000000044,-110.00000000000048,90.0000000000004,40.00000000000018,110.00000000000048,100.00000000000044,50.00000000000022,-0.0,-10.000000000000044
-120.00000000000054,50.00000000000022,100.00000000000044,60.00000000000027,-110.00000000000048,40.00000000000018,40.00000000000018,120.00000000000054,110.00000000000048,50.00000000000022,10.000000000000044,-10.000000000000044
-130.00000000000057,-20.00000000000009,80.00000000000036,80.00000000000036,-100.00000000000044,10.000000000000044,40.00000000000018,130.00000000000057,120.00000000000054,60.00000000000027,10.000000000000044,-10.000000000000044
-100.00000000000044,-40.00000000000018,70.00000000000031,60.00000000000027,-90.0000000000004,10.000000000000044,40.00000000000018,130.00000000000057,130.00000000000057,60.00000000000027,10.000000000000044,-10.000000000000044
-70.00000000000031,-30.000000000000135,60.00000000000027,40.00000000000018,-70.00000000000031,20.00000000000009,40.00000000000018,140.00000000000063,140.00000000000063,70.00000000000031,20.00000000000009,-10.000000000000044
-50.00000000000022,-10.000000000000044,50.00000000000022,10.000000000000044,-50.00000000000022,20.00000000000009,40.00000000000018,150.00000000000065,150.00000000000065,80.00000000000036,20.00000000000009,-0.0
-30.000000000000135,-0.0,30.000000000000135,-0.0,-30.000000000000135,20.00000000000009,40.00000000000018,160.0000000000007,160.0000000000007,90.0000000000004,30.000000000000135,-0.0
-10.000000000000044,-0.0,10.000000000000044,-0.0,-20.00000000000009,-0.0,40.00000000000018,170.00000000000077,170.00000000000077,100.00000000000044,40.00000000000018,-0.0
-20.00000000000009,-0.0,-0.0,10.000000000000044,-10.000000000000044,-0.0,50.00000000000022,180.0000000000008,170.00000000000077,110.00000000000048,40.00000000000018,-0.0
-10.000000000000044,-10.000000000000044,-0.0,10.000000000000044,-0.0,-10.000000000000044,50.00000000000022,190.00000000000085,180.0000000000008,120.00000000000054,50.00000000000022,-0.0
-20.00000000000009,-20.00000000000009,-0.0,20.00000000000009,-0.0,-10.000000000000044,50.00000000000022,200.00000000000088,190.00000000000085,120.00000000000054,50.00000000000022,-0.0
-10.000000000000044,-20.00000000000009,-10.000000000000044,20.00000000000009,-0.0,-10.000000000000044,40.00000000000018,200.00000000000088,200.00000000000088,130.00000000000057,50.00000000000022,-0.0
-10.000000000000044,-20.00000000000009,-20.00000000000009,10.000000000000044,-0.0,-20.00000000000009,40.00000000000018,210.00000000000094,210.00000000000094,140.00000000000063,60.00000000000027,-0.0
-0.0,-20.00000000000009,-30.000000000000135,10.000000000000044,10.000000000000044,-20.00000000000009,40.00000000000018,220.00000000000097,220.00000000000097,150.00000000000065,60.00000000000027,-0.0
-0.0,-20.00000000000009,-30.000000000000135,-0.0,10.000000000000044,-20.00000000000009,40.00000000000018,240.00000000000108,240.00000000000108,160.0000000000007,60.00000000000027,-0.0
-0.0,-20.00000000000009,-30.000000000000135,-0.0,10.000000000000044,-20.00000000000009,40.00000000000018,250.0000000000011,260.00000000000114,180.0000000000008,70.00000000000031,-0.0
-0.0,-20.00000000000009,-30.000000000000135,-0.0,10.000000000000044,-20.00000000000009,40.00000000000018,270.0000000000012,280.00000000000125,200.00000000000088,80.00000000000036,10.000000000000044
10.000000000000044,-10.000000000000044,-30.000000000000135,-0.0,10.000000000000044,-20.00000000000009,50.00000000000022,290.0000000000013,300.0000000000013,210.00000000000094,90.0000000000004,10.000000000000044
10.000000000000044,-10.000000000000044,-30.000000000000135,-0.0,20.00000000000009,-20.00000000000009,50.00000000000022,310.00000000000136,330.0000000000015,230.00000000000102,100.00000000000044,20.00000000000009
10.000000000000044,-10.000000000000044,-30.000000000000135,-0.0,20.00000000000009,-20.00000000000009,50.00000000000022,330.0000000000015,350.00000000000153,250.0000000000011,100.00000000000044,20.00000000000009
10.000000000000044,-10.000000000000044,-40.00000000000018,-0.0,20.00000000000009,-30.000000000000135,50.00000000000022,350.00000000000153,380.0000000000017,280.00000000000125,110.00000000000048,30.000000000000135
10.000000000000044,-20.00000000000009,-40.00000000000018,-0.0,20.00000000000009,-30.000000000000135,50.00000000000022,380.0000000000017,410.0000000000018,300.0000000000013,120.00000000000054,40.00000000000018
10.000000000000044,-20.00000000000009,-50.00000000000022,-0.0,30.000000000000135,-40.00000000000018,50.00000000000022,400.00000000000176,440.00000000000193,330.0000000000015,140.00000000000063,50.00000000000022
10.000000000000044,-30.000000000000135,-50.00000000000022,-0.0,30.000000000000135,-40.00000000000018,50.00000000000022,430.00000000000193,470.0000000000021,360.0000000000016,150.00000000000065,60.00000000000027
10.000000000000044,-30.000000000000135,-40.00000000000018,10.000000000000044,20.00000000000009,-40.00000000000018,50.00000000000022,460.00000000000205,510.0000000000023,400.00000000000176,170.00000000000077,70.00000000000031
-0.0,-30.000000000000135,-40.00000000000018,10.000000000000044,20.00000000000009,-40.00000000000018,40.00000000000018,500.0000000000022,540.0000000000024,430.00000000000193,190.00000000000085,80.00000000000036
-0.0,-30.000000000000135,-40.00000000000018,-0.0,20.00000000000009,-30.000000000000135,40.00000000000018,530.0000000000024,580.0000000000026,460.00000000000205,210.00000000000094,100.00000000000044
10.000000000000044,-30.000000000000135,-40.00000000000018,-0.0,20.00000000000009,-30.000000000000135,40.00000000000018,560.0000000000025,620.0000000000027,500.0000000000022,230.00000000000102,110.00000000000048
10.000000000000044,-20.00000000000009,-30.000000000000135,-0.0,20.00000000000009,-20.00000000000009,40.00000000000018,590.0000000000026,650.0000000000028,530.0000000000024,250.0000000000011,120.00000000000054
20.00000000000009,-20.00000000000009,-40.00000000000018,-0.0,30.000000000000135,-20.00000000000009,30.000000000000135,610.0000000000027,680.0000000000031,560.0000000000025,260.00000000000114,130.00000000000057
20.00000000000009,-10.000000000000044,-40.00000000000018,-0.0,30.000000000000135,-20.00000000000009,30.000000000000135,630.0000000000028,710.0000000000032,600.0000000000026,280.00000000000125,150.00000000000065
30.000000000000135,-10.000000000000044,-40.00000000000018,-0.0,30.000000000000135,-20.00000000000009,20.00000000000009,660.000000000003,740.0000000000033,630.0000000000028,300.0000000000013,160.0000000000007
30.000000000000135,-0.0,-30.000000000000135,-10.000000000000044,30.000000000000135,-20.00000000000009,10.000000000000044,680.0000000000031,770.0000000000034,660.000000000003,320.0000000000014,180.0000000000008
30.000000000000135,-0.0,-30.000000000000135,-10.000000000000044,30.000000000000135,-20.00000000000009,-0.0,700.0000000000031,790.0000000000035,690.0000000000031,330.0000000000015,190.00000000000085
30.000000000000135,-0.0,-30.000000000000135,-10.000000000000044,30.000000000000135,-10.000000000000044,-0.0,710.0000000000032,810.0000000000036,710.0000000000032,350.00000000000153,210.00000000000094
30.000000000000135,-0.0,-30.000000000000135,-10.000000000000044,30.000000000000135,-10.000000000000044,-0.0,730.0000000000033,820.0000000000036,730.0000000000033,370.00000000000165,240.00000000000108
30.000000000000135,-0.0,-30.000000000000135,-20.00000000000009,30.000000000000135,-10.000000000000044,-10.000000000000044,730.0000000000033,830.0000000000036,740.0000000000033,390.0000000000017,260.00000000000114
40.00000000000018,-0.0,-20.00000000000009,-20.00000000000009,30.000000000000135,-0.0,-20.00000000000009,720.0000000000032,820.0000000000036,760.0000000000034,400.00000000000176,270.0000000000012
40.00000000000018,10.000000000000044,-20.00000000000009,-30.000000000000135,30.000000000000135,-0.0,-20.00000000000009,710.0000000000032,800.0000000000035,760.0000000000034,410.0000000000018,280.00000000000125
50.00000000000022,10.000000000000044,-20.00000000000009,-40.00000000000018,40.00000000000018,-0.0,-30.000000000000135,690.0000000000031,760.0000000000034,740.0000000000033,420.0000000000019,280.00000000000125
50.00000000000022,20.00000000000009,-20.00000000000009,-40.00000000000018,40.00000000000018,-0.0,-30.000000000000135,650.0000000000028,720.0000000000032,710.0000000000032,420.0000000000019,290.0000000000013
60.00000000000027,30.000000000000135,-30.000000000000135,-50.00000000000022,40.00000000000018,-0.0,-40.00000000000018,610.0000000000027,680.0000000000031,670.000000000003,410.0000000000018,280.00000000000125
70.00000000000031,30.000000000000135,-30.000000000000135,-60.00000000000027,50.00000000000022,-0.0,-30.000000000000135,570.0000000000025,620.0000000000027,620.0000000000027,390.0000000000017,270.0000000000012
80.00000000000036,40.00000000000018,-30.000000000000135,-60.00000000000027,50.00000000000022,-0.0,-30.000000000000135,530.0000000000024,560.0000000000025,560.0000000000025,360.0000000000016,250.0000000000011
90.0000000000004,40.00000000000018,-30.000000000000135,-70.00000000000031,60.00000000000027,-0.0,-30.000000000000135,470.0000000000021,490.00000000000216,490.00000000000216,330.0000000000015,230.00000000000102
90.0000000000004,50.00000000000022,-30.000000000000135,-80.00000000000036,60.00000000000027,10.000000000000044,-20.00000000000009,410.0000000000018,420.0000000000019,430.00000000000193,290.0000000000013,200.00000000000088
100.00000000000044,60.00000000000027,-20.00000000000009,-90.0000000000004,60.00000000000027,20.00000000000009,-20.00000000000009,350.00000000000153,350.00000000000153,360.0000000000016,250.0000000000011,170.00000000000077
110.00000000000048,70.00000000000031,-20.00000000000009,-100.00000000000044,70.00000000000031,20.00000000000009,-20.00000000000009,300.0000000000013,290.0000000000013,300.0000000000013,210.00000000000094,140.00000000000063
120.00000000000054,80.00000000000036,-20.00000000000009,-110.00000000000048,70.00000000000031,30.000000000000135,-10.000000000000044,250.0000000000011,240.00000000000108,250.0000000000011,180.0000000000008,110.00000000000048
130.00000000000057,100.00000000000044,-20.00000000000009,-130.00000000000057,80.00000000000036,40.00000000000018,-10.000000000000044,200.00000000000088,190.00000000000085,200.00000000000088,150.00000000000065,90.0000000000004
150.00000000000065,110.00000000000048,-20.00000000000009,-140.00000000000063,80.00000000000036,50.00000000000022,-0.0,170.00000000000077,150.00000000000065,150.00000000000065,120.00000000000054,70.00000000000031
160.0000000000007,120.00000000000054,-10.000000000000044,-160.0000000000007,90.0000000000004,60.00000000000027,-0.0,140.00000000000063,120.00000000000054,120.00000000000054,90.0000000000004,50.00000000000022
170.00000000000077,140.00000000000063,-0.0,-170.00000000000077,80.00000000000036,70.00000000000031,-0.0,110.00000000000048,90.0000000000004,90.0000000000004,70.00000000000031,30.000000000000135
180.0000000000008,160.0000000000007,-0.0,-180.0000000000008,90.0000000000004,90.0000000000004,-0.0,80.00000000000036,70.00000000000031,70.00000000000031,50.00000000000022,20.00000000000009
190.00000000000085,180.0000000000008,-0.0,-200.00000000000088,90.0000000000004,100.00000000000044,-0.0,60.00000000000027,50.00000000000022,50.00000000000022,40.00000000000018,10.000000000000044
200.00000000000088,190.00000000000085,10.000000000000044,-210.00000000000094,90.0000000000004,110.00000000000048,-0.0,50.00000000000022,30.000000000000135,30.000000000000135,20.00000000000009,-0.0
210.00000000000094,210.00000000000094,10.000000000000044,-230.00000000000102,100.00000000000044,120.00000000000054,-0.0,30.000000000000135,20.00000000000009,20.00000000000009,10.000000000000044,-0.0
230.00000000000102,230.00000000000102,10.000000000000044,-240.00000000000108,100.00000000000044,120.00000000000054,-0.0,20.00000000000009,10.000000000000044,10.000000000000044,-0.0,-0.0
240.00000000000108,240.00000000000108,10.000000000000044,-260.00000000000114,110.00000000000048,140.00000000000063,-0.0,10.000000000000044,10.000000000000044,10.000000000000044,-0.0,-10.000000000000044
250.0000000000011,260.00000000000114,20.00000000000009,-270.0000000000012,100.00000000000044,150.00000000000065,-0.0,10.000000000000044,-0.0,-0.0,-0.0,-10.000000000000044
250.0000000000011,280.00000000000125,40.00000000000018,-280.00000000000125,100.00000000000044,170.00000000000077,-0.0,-0.0,-0.0,-0.0,-0.0,-10.000000000000044
250.0000000000011,300.0000000000013,60.00000000000027,-280.00000000000125,90.0000000000004,180.0000000000008,-0.0,-0.0,-0.0,-0.0,-0.0,-10.000000000000044
240.00000000000108,310.00000000000136,70.00000000000031,-280.00000000000125,80.00000000000036,190.00000000000085,-0.0,-0.0,-0.0,-0.0,-0.0,-10.000000000000044
230.00000000000102,320.0000000000014,80.00000000000036,-280.00000000000125,70.00000000000031,200.00000000000088,-0.0,-0.0,-0.0,-0.0,-0.0,-10.000000000000044
210.00000000000094,310.00000000000136,80.00000000000036,-270.0000000000012,60.00000000000027,190.00000000000085,-0.0,-0.0,-0.0,-0.0,-0.0,-10.000000000000044
200.00000000000088,300.0000000000013,80.00000000000036,-250.0000000000011,50.00000000000022,180.0000000000008,-0.0,-0.0,-0.0,-0.0,-0.0,-10.000000000000044
180.0000000000008,290.0000000000013,80.00000000000036,-230.00000000000102,40.00000000000018,170.00000000000077,-0.0,-0.0,-0.0,-0.0,-0.0,-20.00000000000009
150.00000000000065,260.00000000000114,80.00000000000036,-200.00000000000088,30.000000000000135,160.0000000000007,-0.0,-0.0,-0.0,-0.0,-0.0,-20.00000000000009
130.00000000000057,240.00000000000108,80.00000000000036,-170.00000000000077,20.00000000000009,140.00000000000063,-0.0,-0.0,-0.0,-0.0,-0.0,-20.00000000000009
100.00000000000044,210.00000000000094,70.00000000000031,-150.00000000000065,10.000000000000044,130.00000000000057,-0.0,-0.0,-0.0,-0.0,-0.0,-20.00000000000009
80.00000000000036,190.00000000000085,70.00000000000031,-120.00000000000054,-0.0,110.00000000000048,-0.0,-0.0,-0.0,-0.0,-0.0,-20.00000000000009
60.00000000000027,160.0000000000007,60.00000000000027,-100.00000000000044,-0.0,90.0000000000004,-0.0,-0.0,-0.0,-0.0,-0.0,-20.00000000000009
50.00000000000022,130.00000000000057,40.00000000000018,-80.00000000000036,-0.0,70.00000000000031,-0.0,-0.0,-0.0,-0.0,-0.0,-20.00000000000009
40.00000000000018,100.00000000000044,30.000000000000135,-70.00000000000031,-0.0,50.00000000000022,-0.0,-0.0,-0.0,-0.0,-0.0,-20.00000000000009
30.000000000000135,80.00000000000036,20.00000000000009,-50.00000000000022,-0.0,40.00000000000018,-0.0,-0.0,-0.0,-0.0,-0.0,-20.00000000000009
20.00000000000009,60.00000000000027,10.000000000000044,-40.00000000000018,-0.0,30.000000000000135,-0.0,-0.0,-0.0,-0.0,-0.0,-20.00000000000009
20.00000000000009,40.00000000000018,-0.0,-30.000000000000135,-0.0,10.000000000000044,-0.0,-0.0,-0.0,-0.0,-0.0,-20.00000000000009
10.000000000000044,30.000000000000135,-0.0,-20.00000000000009,-0.0,10.000000000000044,-0.0,-0.0,-0.0,-0.0,-0.0,-20.00000000000009
-0.0,10.000000000000044,-0.0,-10.000000000000044,-0.0,-0.0,-0.0,-0.0,-0.0,-0.0,-0.0,-20.00000000000009
-0.0,-0.0,-0.0,-0.0,-0.0,-0.0,-0.0,-0.0,-0.0,-0.0,-0.0,-20.00000000000009
-0.0,-0.0,-0.0,-0.0,-0.0,-0.0,-0.0,-0.0,-0.0,-0.0,-0.0,-20.00000000000009
-0.0,-0.0,-0.0,-0.0,-0.0,-0.0,-0.0,-0.0,10.000000000000044,-0.0,-0.0,-20.00000000000009
-0.0,-0.0,-0.0,-0.0,-0.0,-0.0,-0.0,-0.0,10.000000000000044,-0.0,-0.0,-20.00000000000009
-0.0,-0.0,-0.0,-0.0,-0.0,-0.0,-0.0,10.000000000000044,10.000000000000044,-0.0,-0.0,-20.00000000000009
-0.0,-0.0,-0.0,-0.0,-0.0,-0.0,-0.0,10.000000000000044,10.000000000000044,-0.0,-0.0,-20.00000000000009
-0.0,-0.0,-0.0,-0.0,-0.0,-0.0,-0.0,-0.0,10.000000000000044,-0.0,-0.0,-20.00000000000009
-0.0,-0.0,-0.0,-0.0,-0.0,-0.0,-0.0,-0.0,10.000000000000044,-0.0,-0.0,-30.000000000000135
-0.0,-0.0,-0.0,-0.0,-0.0,-0.0,-0.0,-0.0,10.000000000000044,-0.0,-0.0,-30.000000000000135
-0.0,-0.0,-0.0,-0.0,-0.0,-0.0,-0.0,-0.0,10.000000000000044,-0.0,-0.0,-30.000000000000135
-0.0,-0.0,-0.0,-0.0,-0.0,-0.0,-0.0,-0.0,10.000000000000044,-0.0,-0.0,-30.000000000000135
-0.0,-0.0,-0.0,-0.0,-0.0,-0.0,-0.0,10.000000000000044,10.000000000000044,-0.0,-0.0,-30.000000000000135
-0.0,-0.0,-0.0,-0.0,-0.0,-0.0,-0.0,10.000000000000044,10.000000000000044,-0.0,-0.0,-30.000000000000135
-0.0,-0.0,-0.0,-0.0,-0.0,-0.0,-0.0,10.000000000000044,10.000000000000044,-0.0,-0.0,-30.000000000000135
-0.0,-0.0,-0.0,-0.0,-0.0,-0.0,-0.0,10.000000000000044,-0.0,-0.0,-0.0,-30.000000000000135
-0.0,-0.0,-0.0,-0.0,-0.0,-0.0,-0.0,10.000000000000044,-0.0,-0.0,-0.0,-30.000000000000135
-0.0,-0.0,-0.0,-0.0,-0.0,-0.0,-0.0,10.000000000000044,-0.0,-0.0,-0.0,-30.000000000000135
-0.0,-0.0,-0.0,-0.0,-0.0,-0.0,-0.0,10.000000000000044,-0.0,-0.0,-0.0,-30.000000000000135
-0.0,-0.0,-0.0,-0.0,-0.0,-0.0,-0.0,10.000000000000044,-0.0,-0.0,-0.0,-30.000000000000135
-0.0,-0.0,-0.0,-0.0,-0.0,-0.0,-0.0,10.000000000000044,-0.0,-0.0,-0.0,-30.000000000000135
-0.0,-0.0,10.000000000000044,-0.0,-10.000000000000044,-0.0,-0.0,10.000000000000044,-0.0,-0.0,-0.0,-30.000000000000135
-0.0,-0.0,10.000000000000044,-0.0,-10.000000000000044,10.000000000000044,-0.0,10.000000000000044,-0.0,-0.0,-0.0,-20.00000000000009
-0.0,-0.0,10.000000000000044,-0.0,-10.000000000000044,10.000000000000044,-0.0,-0.0,-0.0,-0.0,-0.0,-30.000000000000135
-0.0,10.000000000000044,10.000000000000044,-0.0,-0.0,10.000000000000044,-0.0,-0.0,-0.0,-10.000000000000044,-0.0,-30.000000000000135
-0.0,10.000000000000044,-0.0,-0.0,-0.0,10.000000000000044,-0.0,-0.0,-0.0,-10.000000000000044,-0.0,-30.000000000000135
-0.0,10.000000000000044,-0.0,-0.0,-0.0,-0.0,-0.0,-0.0,-0.0,-10.000000000000044,-0.0,-30.000000000000135
-0.0,10.000000000000044,-0.0,-0.0,-0.0,-0.0,-0.0,-0.0,-0.0,-10.000000000000044,-0.0,-30.000000000000135
-0.0,-0.0,-0.0,-0.0,-0.0,-0.0,-0.0,-0.0,-10.000000000000044,-10.000000000000044,-0.0,-30.000000000000135
-0.0,-0.0,-0.0,-0.0,-0.0,-0.0,-0.0,-0.0,-10.000000000000044,-10.000000000000044,-0.0,-30.000000000000135
-0.0,-0.0,-0.0,-0.0,-0.0,-0.0,-0.0,-0.0,-0.0,-0.0,-0.0,-30.000000000000135
-0.0,10.000000000000044,-0.0,-0.0,-0.0,-0.0,-0.0,-0.0,-0.0,-0.0,-0.0,-30.000000000000135
-0.0,10.000000000000044,-0.0,-0.0,-0.0,-0.0,-0.0,-0.0,-0.0,-0.0,-0.0,-20.00000000000009
-0.0,10.000000000000044,-0.0,-0.0,-0.0,-0.0,-0.0,-0.0,-0.0,-0.0,-0.0,-20.00000000000009
-0.0,10.000000000000044,10.000000000000044,-0.0,-0.0,10.000000000000044,-0.0,-0.0,-0.0,-0.0,-0.0,-20.00000000000009
-0.0,10.000000000000044,10.000000000000044,-0.0,-0.0,10.000000000000044,-0.0,-0.0,-10.000000000000044,-0.0,-0.0,-20.00000000000009
-0.0,10.000000000000044,10.000000000000044,-0.0,-0.0,10.000000000000044,-0.0,-0.0,-10.000000000000044,-0.0,-0.0,-20.00000000000009
-0.0,10.000000000000044,10.000000000000044,-0.0,-0.0,10.000000000000044,-0.0,-0.0,-10.000000000000044,-0.0,-0.0,-20.00000000000009
-0.0,10.000000000000044,10.000000000000044,-10.000000000000044,-0.0,10.000000000000044,-0.0,-0.0,-10.000000000000044,-0.0,-0.0,-20.00000000000009
-0.0,10.000000000000044,-0.0,-10.000000000000044,-0.0,10.000000000000044,-0.0,-0.0,-10.000000000000044,-0.0,-0.0,-20.00000000000009
-0.0,10.000000000000044,-0.0,-0.0,-0.0,-0.0,-0.0,-0.0,-10.000000000000044,-0.0,-0.0,-20.00000000000009
-0.0,10.000000000000044,-0.0,-0.0,-0.0,-0.0,-0.0,-0.0,-10.000000000000044,-0.0,-0.0,-10.000000000000044
-0.0,-0.0,-0.0,-0.0,-0.0,-0.0,-0.0,-0.0,-10.000000000000044,-0.0,-0.0,-10.000000000000044
10.000000000000044,-0.0,-0.0,-0.0,-0.0,-0.0,-0.0,-0.0,-10.000000000000044,-10.000000000000044,-0.0,-20.00000000000009
10.000000000000044,-0.0,-0.0,-0.0,-0.0,-0.0,-0.0,-0.0,-10.000000000000044,-10.000000000000044,-0.0,-20.00000000000009
10.000000000000044,-0.0,-0.0,-0.0,-0.0,-0.0,-0.0,-0.0,-10.000000000000044,-10.000000000000044,-10.000000000000044,-20.00000000000009
10.000000000000044,-0.0,-0.0,-0.0,-0.0,-0.0,-0.0,-0.0,-10.000000000000044,-10.000000000000044,-10.000000000000044,-20.00000000000009
-0.0,-0.0,-0.0,-0.0,-0.0,-0.0,-0.0,-10.000000000000044,-20.00000000000009,-20.00000000000009,-10.000000000000044,-20.00000000000009
-0.0,-0.0,-0.0,-0.0,-0.0,-0.0,-0.0,-10.000000000000044,-20.00000000000009,-20.00000000000009,-10.000000000000044,-20.00000000000009
-0.0,-0.0,-0.0,-0.0,-0.0,-0.0,-0.0,-0.0,-20.00000000000009,-20.00000000000009,-10.000000000000044,-20.00000000000009
-0.0,-0.0,-0.0,-0.0,-0.0,-0.0,-0.0,-0.0,-20.00000000000009,-20.00000000000009,-10.000000000000044,-20.00000000000009
-0.0,-0.0,-0.0,-0.0,-0.0,-0.0,-0.0,-0.0,-20.00000000000009,-20.00000000000009,-10.000000000000044,-20.00000000000009
-0.0,-0.0,-0.0,-0.0,-0.0,-0.0,-0.0,-0.0,-20.00000000000009,-20.00000000000009,-10.000000000000044,-20.00000000000009
-0.0,-0.0,-0.0,-0.0,-0.0,-0.0,-0.0,-0.0,-20.00000000000009,-20.00000000000009,-10.000000000000044,-20.00000000000009
-0.0,-0.0,-0.0,-0.0,-0.0,-0.0,-0.0,-0.0,-20.00000000000009,-20.00000000000009,-10.000000000000044,-20.00000000000009
-0.0,-0.0,-0.0,-0.0,-0.0,-0.0,-0.0,-0.0,-20.00000000000009,-10.000000000000044,-10.000000000000044,-10.000000000000044
-0.0,-0.0,-0.0,-0.0,-0.0,-0.0,-0.0,-0.0,-10.000000000000044,-10.000000000000044,-10.000000000000044,-10.000000000000044
-0.0,-0.0,-0.0,-0.0,-0.0,-0.0,-0.0,-0.0,-10.000000000000044,-10.000000000000044,-10.000000000000044,-10.000000000000044
-0.0,-0.0,-0.0,-0.0,-0.0,-0.0,-0.0,-0.0,-10.000000000000044,-10.000000000000044,-10.000000000000044,-10.000000000000044
-0.0,-0.0,-0.0,-0.0,-0.0,-0.0,-0.0,-0.0,-10.000000000000044,-10.000000000000044,-10.000000000000044,-10.000000000000044
-0.0,-0.0,-0.0,-0.0,-0.0,-0.0,-0.0,-0.0,-10.000000000000044,-10.000000000000044,-10.000000000000044,-10.000000000000044
-0.0,-0.0,-0.0,-0.0,-0.0,-0.0,-0.0,-0.0,-10.000000000000044,-20.00000000000009,-10.000000000000044,-10.000000000000044
-0.0,-0.0,-0.0,-0.0,-0.0,-0.0,-0.0,-0.0,-20.00000000000009,-20.00000000000009,-10.000000000000044,-10.000000000000044
-0.0,-0.0,-0.0,-0.0,-0.0,-0.0,-0.0,-0.0,-20.00000000000009,-20.00000000000009,-10.000000000000044,-10.000000000000044
-0.0,-0.0,-0.0,-0.0,-0.0,-0.0,-0.0,-0.0,-20.00000000000009,-20.00000000000009,-10.000000000000044,-10.000000000000044
-0.0,-0.0,-0.0,-0.0,-0.0,-0.0,-0.0,-0.0,-20.00000000000009,-20.00000000000009,-10.000000000000044,-10.000000000000044
-0.0,-0.0,-0.0,-0.0,-0.0,-0.0,-0.0,-0.0,-20.00000000000009,-30.000000000000135,-10.000000000000044,-10.000000000000044
-0.0,-0.0,-0.0,-0.0,-0.0,-0.0,-0.0,-10.000000000000044,-20.00000000000009,-30.000000000000135,-10.000000000000044,-10.000000000000044
-0.0,-0.0,-10.000000000000044,-0.0,-0.0,-0.0,-0.0,-10.000000000000044,-20.00000000000009,-20.00000000000009,-10.000000000000044,-10.000000000000044
-0.0,-0.0,-10.000000000000044,-0.0,-0.0,-0.0,-0.0,-10.000000000000044,-20.00000000000009,-30.000000000000135,-10.000000000000044,-10.000000000000044
-0.0,-0.0,-10.000000000000044,-0.0,-0.0,-0.0,-0.0,-10.000000000000044,-20.00000000000009,-20.00000000000009,-10.000000000000044,-10.000000000000044
-0.0,-0.0,-10.000000000000044,-0.0,-0.0,-0.0,-0.0,-10.000000000000044,-10.000000000000044,-20.00000000000009,-0.0,-10.000000000000044
-0.0,-0.0,-0.0,-0.0,-0.0,-0.0,-0.0,-10.000000000000044,-10.000000000000044,-20.00000000000009,-0.0,-0.0
-0.0,-0.0,-0.0,-0.0,-0.0,-0.0,-0.0,-0.0,-10.000000000000044,-10.000000000000044,-0.0,-0.0
-0.0,-0.0,-0.0,-0.0,-0.0,-0.0,-0.0,-0.0,-0.0,-10.000000000000044,-0.0,-0.0
-0.0,-0.0,-0.0,-0.0,-0.0,-0.0,-0.0,-0.0,-0.0,-10.000000000000044,-0.0,-0.0
-0.0,-0.0,-0.0,-0.0,-0.0,-0.0,-0.0,-0.0,-0.0,-0.0,-0.0,-0.0
-0.0,-0.0,-0.0,-0.0,-0.0,-0.0,-0.0,-0.0,-0.0,-0.0,-0.0,-0.0
-0.0,-0.0,-0.0,-0.0,-0.0,-0.0,-0.0,-0.0,-0.0,-0.0,-0.0,-0.0
-0.0,-0.0,-10.000000000000044,-0.0,-0.0,-10.000000000000044,10.000000000000044,-0.0,-0.0,-0.0,-0.0,10.000000000000044
-0.0,-0.0,-10.000000000000044,-0.0,-0.0,-10.000000000000044,10.000000000000044,10.000000000000044,10.000000000000044,-0.0,10.000000000000044,10.000000000000044
-0.0,-10.000000000000044,-20.00000000000009,-0.0,-0.0,-10.000000000000044,-0.0,10.000000000000044,10.000000000000044,10.000000000000044,10.000000000000044,20.00000000000009
-0.0,-10.000000000000044,-10.000000000000044,-0.0,-0.0,-10.000000000000044,-0.0,10.000000000000044,10.000000000000044,10.000000000000044,20.00000000000009,30.000000000000135
-0.0,-10.000000000000044,-10.000000000000044,-0.0,-0.0,-10.000000000000044,-10.000000000000044,10.000000000000044,10.000000000000044,10.000000000000044,30.000000000000135,40.00000000000018
-0.0,-10.000000000000044,-0.0,-0.0,-0.0,-0.0,-30.000000000000135,-0.0,10.000000000000044,20.00000000000009,40.00000000000018,50.00000000000022
-0.0,-10.000000000000044,-0.0,-0.0,-0.0,-0.0,-40.00000000000018,-0.0,10.000000000000044,20.00000000000009,40.00000000000018,50.00000000000022
-0.0,-0.0,-0.0,-0.0,-0.0,-0.0,-40.00000000000018,-0.0,10.000000000000044,10.000000000000044,50.00000000000022,60.00000000000027
-0.0,-0.0,-0.0,-0.0,-0.0,-0.0,-40.00000000000018,-0.0,10.000000000000044,10.000000000000044,50.00000000000022,60.00000000000027
-0.0,-0.0,-0.0,-0.0,-0.0,-0.0,-40.00000000000018,-0.0,-0.0,10.000000000000044,40.00000000000018,50.00000000000022
-0.0,-0.0,-10.000000000000044,-0.0,-0.0,-10.000000000000044,-30.000000000000135,-0.0,-0.0,-0.0,40.00000000000018,50.00000000000022
-0.0,-10.000000000000044,-10.000000000000044,-0.0,-0.0,-10.000000000000044,-30.000000000000135,-10.000000000000044,-0.0,-0.0,30.000000000000135,40.00000000000018
-0.0,-10.000000000000044,-10.000000000000044,-0.0,-0.0,-10.000000000000044,-20.00000000000009,-10.000000000000044,-0.0,-0.0,30.000000000000135,40.00000000000018
-0.0,-10.000000000000044,-0.0,-0.0,-0.0,-0.0,-20.00000000000009,-20.00000000000009,-10.000000000000044,-10.000000000000044,20.00000000000009,30.000000000000135
-0.0,-0.0,-0.0,-0.0,-0.0,-0.0,-20.00000000000009,-30.000000000000135,-10.000000000000044,-20.00000000000009,10.000000000000044,20.00000000000009
-0.0,-0.0,-0.0,-0.0,-0.0,-0.0,-20.00000000000009,-30.000000000000135,-20.00000000000009,-30.000000000000135,-0.0,10.000000000000044
-0.0,-0.0,-0.0,-0.0,-0.0,-0.0,-20.00000000000009,-30.000000000000135,-30.000000000000135,-30.000000000000135,-0.0,-0.0
-0.0,-0.0,-0.0,-0.0,-0.0,-0.0,-10.000000000000044,-30.000000000000135,-30.000000000000135,-40.00000000000018,-0.0,-0.0
-0.0,-0.0,-0.0,-0.0,-0.0,-0.0,-10.000000000000044,-40.00000000000018,-30.000000000000135,-40.00000000000018,-10.000000000000044,-10.000000000000044
-0.0,-0.0,-0.0,-0.0,-0.0,-0.0,-0.0,-40.00000000000018,-30.000000000000135,-50.00000000000022,-10.000000000000044,-20.00000000000009
-0.0,-0.0,-0.0,-0.0,-0.0,-0.0,-0.0,-40.00000000000018,-30.000000000000135,-50.00000000000022,-20.00000000000009,-40.00000000000018
-0.0,-0.0,-0.0,-0.0,-0.0,-0.0,-0.0,-40.00000000000018,-30.000000000000135,-50.00000000000022,-20.00000000000009,-40.00000000000018
-0.0,-0.0,-0.0,-0.0,-0.0,-0.0,-0.0,-40.00000000000018,-40.00000000000018,-50.00000000000022,-20.00000000000009,-50.00000000000022
-0.0,-0.0,-0.0,-0.0,-0.0,-0.0,-0.0,-40.00000000000018,-30.000000000000135,-50.00000000000022,-20.00000000000009,-50.00000000000022
-0.0,-0.0,-0.0,-0.0,-0.0,-0.0,-0.0,-40.00000000000018,-30.000000000000135,-50.00000000000022,-20.00000000000009,-50.00000000000022
-0.0,-0.0,-0.0,-0.0,-0.0,-0.0,-0.0,-40.00000000000018,-30.000000000000135,-50.00000000000022,-20.00000000000009,-50.00000000000022
-0.0,-0.0,-0.0,-0.0,-0.0,-0.0,-0.0,-40.00000000000018,-30.000000000000135,-60.00000000000027,-30.000000000000135,-50.00000000000022
-0.0,-0.0,-0.0,-0.0,-0.0,-0.0,-0.0,-40.00000000000018,-30.000000000000135,-60.00000000000027,-30.000000000000135,-50.00000000000022
-0.0,-0.0,-0.0,-0.0,-0.0,-0.0,-0.0,-40.00000000000018,-30.000000000000135,-60.00000000000027,-40.00000000000018,-50.00000000000022
-0.0,-0.0,-0.0,-0.0,-0.0,-0.0,-0.0,-40.00000000000018,-30.000000000000135,-60.00000000000027,-40.00000000000018,-50.00000000000022
-0.0,-0.0,-0.0,-0.0,-0.0,-0.0,-0.0,-40.00000000000018,-30.000000000000135,-50.00000000000022,-40.00000000000018,-50.00000000000022
-0.0,-0.0,-0.0,-0.0,-0.0,-0.0,-0.0,-40.00000000000018,-30.000000000000135,-50.00000000000022,-40.00000000000018,-50.00000000000022
-0.0,-0.0,-0.0,-0.0,-0.0,-0.0,-0.0,-30.000000000000135,-20.00000000000009,-50.00000000000022,-40.00000000000018,-60.00000000000027
-0.0,-0.0,-0.0,-0.0,-0.0,-0.0,-0.0,-30.000000000000135,-30.000000000000135,-50.00000000000022,-40.00000000000018,-60.00000000000027
-0.0,-0.0,-0.0,-0.0,-0.0,-0.0,10.000000000000044,-20.00000000000009,-30.000000000000135,-50.00000000000022,-50.00000000000022,-70.00000000000031
-10.000000000000044,-0.0,-0.0,-0.0,-10.000000000000044,-0.0,30.000000000000135,-0.0,-0.0,-30.000000000000135,-60.00000000000027,-70.00000000000031
-10.000000000000044,-0.0,10.000000000000044,-0.0,-10.000000000000044,-0.0,40.00000000000018,10.000000000000044,50.00000000000022,10.000000000000044,-60.00000000000027,-70.00000000000031
-10.000000000000044,-0.0,10.000000000000044,-0.0,-10.000000000000044,-0.0,50.00000000000022,40.00000000000018,130.00000000000057,90.0000000000004,-30.000000000000135,-50.00000000000022
-10.000000000000044,-0.0,10.000000000000044,-0.0,-10.000000000000044,-0.0,40.00000000000018,90.0000000000004,240.00000000000108,220.00000000000097,20.00000000000009,-10.000000000000044
-0.0,-0.0,-0.0,-0.0,-0.0,-0.0,-0.0,120.00000000000054,340.00000000000153,400.00000000000176,110.00000000000048,60.00000000000027
-0.0,-0.0,-0.0,-0.0,-0.0,-0.0,-60.00000000000027,120.00000000000054,410.0000000000018,590.0000000000026,230.00000000000102,150.00000000000065
-0.0,-0.0,-0.0,-0.0,-0.0,-0.0,-160.0000000000007,50.00000000000022,400.00000000000176,730.0000000000033,370.00000000000165,260.00000000000114
-0.0,-0.0,-0.0,-0.0,-0.0,-0.0,-270.0000000000012,-100.00000000000044,280.00000000000125,770.0000000000034,490.00000000000216,350.00000000000153
-0.0,-0.0,-0.0,-0.0,-0.0,-0.0,-380.0000000000017,-330.0000000000015,80.00000000000036,680.0000000000031,560.0000000000025,400.00000000000176
-10.000000000000044,-0.0,-0.0,-0.0,-10.000000000000044,-0.0,-460.00000000000205,-590.0000000000026,-190.00000000000085,470.0000000000021,550.0000000000024,400.00000000000176
-10.000000000000044,-0.0,10.000000000000044,-0.0,-10.000000000000044,-0.0,-510.0000000000023,-840.0000000000038,-450.000000000002,200.00000000000088,460.00000000000205,340.00000000000153
-10.000000000000044,-0.0,10.000000000000044,-0.0,-10.000000000000044,-0.0,-510.0000000000023,-1020.0000000000045,-640.0000000000028,-70.00000000000031,320.0000000000014,240.00000000000108
-10.000000000000044,-0.0,10.000000000000044,-0.0,-10.000000000000044,-0.0,-480.00000000000216,-1100.0000000000048,-730.0000000000033,-280.00000000000125,160.0000000000007,130.00000000000057
-10.000000000000044,-0.0,-0.0,-0.0,-10.000000000000044,-0.0,-420.0000000000019,-1030.0000000000045,-680.0000000000031,-390.0000000000017,20.00000000000009,30.000000000000135
-0.0,-0.0,-0.0,-0.0,-0.0,-0.0,-360.0000000000016,-890.000000000004,-560.0000000000025,-380.0000000000017,-70.00000000000031,-30.000000000000135
-0.0,-0.0,-0.0,-0.0,-0.0,-0.0,-300.0000000000013,-700.0000000000031,-400.00000000000176,-300.0000000000013,-100.00000000000044,-50.00000000000022
-0.0,-0.0,-0.0,-0.0,-0.0,-0.0,-240.00000000000108,-510.0000000000023,-250.0000000000011,-200.00000000000088,-90.0000000000004,-60.00000000000027
-0.0,-0.0,-0.0,-0.0,-0.0,-0.0,-180.0000000000008,-340.00000000000153,-140.00000000000063,-110.00000000000048,-50.00000000000022,-40.00000000000018
-0.0,-0.0,-0.0,-0.0,-0.0,-0.0,-120.00000000000054,-220.00000000000097,-80.00000000000036,-50.00000000000022,-20.00000000000009,-20.00000000000009
-10.000000000000044,-0.0,-0.0,-0.0,-0.0,-0.0,-80.00000000000036,-140.00000000000063,-50.00000000000022,-20.00000000000009,-0.0,-10.000000000000044
-10.000000000000044,-0.0,-0.0,-0.0,-0.0,-0.0,-40.00000000000018,-90.0000000000004,-30.000000000000135,-30.000000000000135,-0.0,-20.00000000000009
-10.000000000000044,-0.0,-0.0,-0.0,-0.0,-0.0,-20.00000000000009,-50.00000000000022,-20.00000000000009,-30.000000000000135,-0.0,-20.00000000000009
-10.000000000000044,-0.0,-0.0,-0.0,-0.0,-0.0,-0.0,-30.000000000000135,-20.00000000000009,-30.000000000000135,-10.000000000000044,-30.000000000000135
-10.000000000000044,-0.0,-0.0,-0.0,-10.000000000000044,-0.0,-0.0,-20.00000000000009,-10.000000000000044,-20.00000000000009,-10.000000000000044,-30.000000000000135
-10.000000000000044,-0.0,-0.0,10.000000000000044,-10.000000000000044,-0.0,-0.0,-0.0,-0.0,-10.000000000000044,-10.000000000000044,-30.000000000000135
-10.000000000000044,-0.0,10.000000000000044,10.000000000000044,-10.000000000000044,-0.0,10.000000000000044,10.000000000000044,10.000000000000044,-10.000000000000044,-10.000000000000044,-30.000000000000135
-10.000000000000044,-0.0,10.000000000000044,-0.0,-10.000000000000044,-0.0,10.000000000000044,20.00000000000009,20.00000000000009,-0.0,-10.000000000000044,-30.000000000000135
-10.000000000000044,-0.0,20.00000000000009,-0.0,-10.000000000000044,10.000000000000044,20.00000000000009,40.00000000000018,30.000000000000135,-0.0,-10.000000000000044,-20.00000000000009
-10.000000000000044,-0.0,20.00000000000009,-0.0,-20.00000000000009,10.000000000000044,20.00000000000009,50.00000000000022,40.00000000000018,10.000000000000044,-10.000000000000044,-20.00000000000009
-10.000000000000044,-0.0,30.000000000000135,-0.0,-20.00000000000009,20.00000000000009,20.00000000000009,60.00000000000027,50.00000000000022,20.00000000000009,-0.0,-20.00000000000009
-0.0,20.00000000000009,30.000000000000135,-10.000000000000044,-20.00000000000009,30.000000000000135,30.000000000000135,70.00000000000031,60.00000000000027,20.00000000000009,-0.0,-10.000000000000044
-0.0,30.000000000000135,40.00000000000018,-20.00000000000009,-10.000000000000044,40.00000000000018,30.000000000000135,80.00000000000036,60.00000000000027,30.000000000000135,-0.0,-10.000000000000044
-0.0,40.00000000000018,40.00000000000018,-30.000000000000135,-10.000000000000044,40.00000000000018,30.000000000000135,90.0000000000004,70.00000000000031,40.00000000000018,-0.0,-0.0
-0.0,50.00000000000022,40.00000000000018,-30.000000000000135,-20.00000000000009,50.00000000000022,30.000000000000135,100.00000000000044,80.00000000000036,40.00000000000018,-0.0,-0.0
10.000000000000044,50.00000000000022,50.00000000000022,-40.00000000000018,-20.00000000000009,50.00000000000022,30.000000000000135,100.00000000000044,90.0000000000004,50.00000000000022,-0.0,-0.0
10.000000000000044,60.00000000000027,50.00000000000022,-40.00000000000018,-20.00000000000009,60.00000000000027,30.000000000000135,110.00000000000048,100.00000000000044,50.00000000000022,10.000000000000044,-0.0
10.000000000000044,70.00000000000031,60.00000000000027,-50.00000000000022,-20.00000000000009,70.00000000000031,30.000000000000135,120.00000000000054,110.00000000000048,60.00000000000027,10.000000000000044,-0.0
20.00000000000009,80.00000000000036,70.00000000000031,-60.00000000000027,-20.00000000000009,80.00000000000036,40.00000000000018,130.00000000000057,110.00000000000048,60.00000000000027,10.000000000000044,-0.0
30.000000000000135,100.00000000000044,70.00000000000031,-70.00000000000031,-20.00000000000009,90.0000000000004,40.00000000000018,130.00000000000057,120.00000000000054,70.00000000000031,20.00000000000009,-0.0
40.00000000000018,110.00000000000048,80.00000000000036,-80.00000000000036,-10.000000000000044,100.00000000000044,40.00000000000018,140.00000000000063,130.00000000000057,80.00000000000036,30.000000000000135,10.000000000000044
40.00000000000018,120.00000000000054,70.00000000000031,-80.00000000000036,-10.000000000000044,100.00000000000044,40.00000000000018,150.00000000000065,140.00000000000063,90.0000000000004,30.000000000000135,10.000000000000044
50.00000000000022,120.00000000000054,70.00000000000031,-80.00000000000036,-0.0,90.0000000000004,40.00000000000018,160.0000000000007,150.00000000000065,90.0000000000004,40.00000000000018,10.000000000000044
40.00000000000018,120.00000000000054,60.00000000000027,-80.00000000000036,-0.0,90.0000000000004,40.00000000000018,160.0000000000007,160.0000000000007,100.00000000000044,40.00000000000018,10.000000000000044
40.00000000000018,110.00000000000048,60.00000000000027,-70.00000000000031,-0.0,80.00000000000036,40.00000000000018,170.00000000000077,160.0000000000007,110.00000000000048,40.00000000000018,10.000000000000044
30.000000000000135,100.00000000000044,50.00000000000022,-60.00000000000027,-0.0,70.00000000000031,40.00000000000018,180.0000000000008,170.00000000000077,120.00000000000054,40.00000000000018,10.000000000000044
20.00000000000009,90.0000000000004,50.00000000000022,-50.00000000000022,-10.000000000000044,60.00000000000027,40.00000000000018,190.00000000000085,180.0000000000008,130.00000000000057,40.00000000000018,10.000000000000044
20.00000000000009,80.00000000000036,40.00000000000018,-50.00000000000022,-10.000000000000044,50.00000000000022,40.00000000000018,200.00000000000088,190.00000000000085,140.00000000000063,50.00000000000022,20.00000000000009
10.000000000000044,70.00000000000031,40.00000000000018,-40.00000000000018,-10.000000000000044,50.00000000000022,40.00000000000018,210.00000000000094,210.00000000000094,150.00000000000065,50.00000000000022,20.00000000000009
-0.0,50.00000000000022,30.000000000000135,-20.00000000000009,-10.000000000000044,30.000000000000135,40.00000000000018,220.00000000000097,220.00000000000097,170.00000000000077,60.00000000000027,20.00000000000009
-0.0,40.00000000000018,20.00000000000009,-10.000000000000044,-10.000000000000044,20.00000000000009,50.00000000000022,230.00000000000102,240.00000000000108,180.0000000000008,60.00000000000027,30.000000000000135
-10.000000000000044,20.00000000000009,10.000000000000044,-0.0,-10.000000000000044,10.000000000000044,50.00000000000022,250.0000000000011,260.00000000000114,200.00000000000088,70.00000000000031,30.000000000000135
-10.000000000000044,-0.0,10.000000000000044,-0.0,-10.000000000000044,-0.0,50.00000000000022,270.0000000000012,280.00000000000125,210.00000000000094,80.00000000000036,40.00000000000018
-20.00000000000009,-0.0,-0.0,10.000000000000044,-10.000000000000044,-0.0,50.00000000000022,290.0000000000013,300.0000000000013,230.00000000000102,80.00000000000036,40.00000000000018
-20.00000000000009,-20.00000000000009,-0.0,20.00000000000009,-10.000000000000044,-10.000000000000044,50.00000000000022,300.0000000000013,320.0000000000014,250.0000000000011,90.0000000000004,50.00000000000022
-30.000000000000135,-30.000000000000135,-0.0,30.000000000000135,-10.000000000000044,-20.00000000000009,50.00000000000022,330.0000000000015,350.00000000000153,270.0000000000012,100.00000000000044,50.00000000000022
-30.000000000000135,-40.00000000000018,-10.000000000000044,30.000000000000135,-0.0,-20.00000000000009,50.00000000000022,350.00000000000153,380.0000000000017,300.0000000000013,110.00000000000048,60.00000000000027
-30.000000000000135,-40.00000000000018,-10.000000000000044,30.000000000000135,-0.0,-20.00000000000009,50.00000000000022,380.0000000000017,410.0000000000018,330.0000000000015,120.00000000000054,70.00000000000031
-30.000000000000135,-40.00000000000018,-0.0,30.000000000000135,-10.000000000000044,-20.00000000000009,50.00000000000022,410.0000000000018,440.00000000000193,360.0000000000016,140.00000000000063,80.00000000000036
-30.000000000000135,-40.00000000000018,-0.0,30.000000000000135,-10.000000000000044,-20.00000000000009,60.00000000000027,440.00000000000193,480.00000000000216,390.0000000000017,150.00000000000065,90.0000000000004
-30.000000000000135,-40.00000000000018,-0.0,30.000000000000135,-10.000000000000044,-20.00000000000009,60.00000000000027,470.0000000000021,510.0000000000023,420.0000000000019,170.00000000000077,100.00000000000044
-30.000000000000135,-40.00000000000018,-0.0,30.000000000000135,-10.000000000000044,-20.00000000000009,60.00000000000027,500.0000000000022,550.0000000000024,450.000000000002,190.00000000000085,110.00000000000048
-30.000000000000135,-40.00000000000018,-10.000000000000044,30.000000000000135,-0.0,-20.00000000000009,60.00000000000027,530.0000000000024,590.0000000000026,490.00000000000216,210.00000000000094,130.00000000000057
-30.000000000000135,-40.00000000000018,-10.000000000000044,40.00000000000018,-0.0,-30.000000000000135,60.00000000000027,570.0000000000025,620.0000000000027,530.0000000000024,230.00000000000102,140.00000000000063
-30.000000000000135,-40.00000000000018,-10.000000000000044,40.00000000000018,-0.0,-30.000000000000135,50.00000000000022,600.0000000000026,660.000000000003,560.0000000000025,240.00000000000108,160.0000000000007
-30.000000000000135,-50.00000000000022,-10.000000000000044,40.00000000000018,-0.0,-30.000000000000135,50.00000000000022,620.0000000000027,690.0000000000031,600.0000000000026,260.00000000000114,170.00000000000077
-30.000000000000135,-50.00000000000022,-20.00000000000009,40.00000000000018,-0.0,-30.000000000000135,40.00000000000018,640.0000000000028,720.0000000000032,630.0000000000028,280.00000000000125,180.0000000000008
-30.000000000000135,-50.00000000000022,-20.00000000000009,40.00000000000018,-0.0,-30.000000000000135,40.00000000000018,660.000000000003,740.0000000000033,660.000000000003,300.0000000000013,200.00000000000088
-30.000000000000135,-50.00000000000022,-20.00000000000009,40.00000000000018,-0.0,-40.00000000000018,30.000000000000135,680.0000000000031,770.0000000000034,690.0000000000031,320.0000000000014,210.00000000000094
-30.000000000000135,-60.00000000000027,-30.000000000000135,40.00000000000018,-0.0,-40.00000000000018,20.00000000000009,700.0000000000031,790.0000000000035,710.0000000000032,330.0000000000015,230.00000000000102
-30.000000000000135,-60.00000000000027,-30.000000000000135,40.00000000000018,-0.0,-40.00000000000018,20.00000000000009,720.0000000000032,810.0000000000036,730.0000000000033,350.00000000000153,240.00000000000108
-10.000000000000044,-60.00000000000027,-30.000000000000135,20.00000000000009,-0.0,-30.000000000000135,10.000000000000044,730.0000000000033,810.0000000000036,750.0000000000033,370.00000000000165,260.00000000000114
20.00000000000009,-40.00000000000018,-20.00000000000009,-20.00000000000009,10.000000000000044,-0.0,10.000000000000044,730.0000000000033,810.0000000000036,760.0000000000034,390.0000000000017,270.0000000000012
70.00000000000031,10.000000000000044,-0.0,-80.00000000000036,30.000000000000135,40.00000000000018,-0.0,710.0000000000032,790.0000000000035,750.0000000000033,400.00000000000176,280.00000000000125
140.00000000000063,70.00000000000031,20.00000000000009,-160.0000000000007,50.00000000000022,100.00000000000044,-0.0,690.0000000000031,760.0000000000034,730.0000000000033,400.00000000000176,290.0000000000013
200.00000000000088,170.00000000000077,70.00000000000031,-240.00000000000108,60.00000000000027,170.00000000000077,-0.0,660.000000000003,720.0000000000032,700.0000000000031,400.00000000000176,290.0000000000013
240.00000000000108,270.0000000000012,120.00000000000054,-300.0000000000013,50.00000000000022,230.00000000000102,-10.000000000000044,620.0000000000027,680.0000000000031,660.000000000003,390.0000000000017,280.00000000000125
230.00000000000102,360.0000000000016,160.0000000000007,-320.0000000000014,20.00000000000009,280.00000000000125,-10.000000000000044,580.0000000000026,620.0000000000027,610.0000000000027,370.00000000000165,270.0000000000012
180.0000000000008,400.00000000000176,190.00000000000085,-280.00000000000125,-10.000000000000044,290.0000000000013,-10.000000000000044,530.0000000000024,560.0000000000025,550.0000000000024,340.00000000000153,250.0000000000011
90.0000000000004,380.0000000000017,210.00000000000094,-200.00000000000088,-60.00000000000027,260.00000000000114,-10.000000000000044,470.0000000000021,490.00000000000216,490.00000000000216,310.00000000000136,230.00000000000102
-0.0,310.00000000000136,200.00000000000088,-100.00000000000044,-110.00000000000048,200.00000000000088,-10.000000000000044,420.0000000000019,420.0000000000019,420.0000000000019,280.00000000000125,210.00000000000094
-80.00000000000036,200.00000000000088,180.0000000000008,-10.000000000000044,-140.00000000000063,140.00000000000063,-10.000000000000044,360.0000000000016,360.0000000000016,360.0000000000016,240.00000000000108,190.00000000000085
-140.00000000000063,90.0000000000004,150.00000000000065,50.00000000000022,-150.00000000000065,80.00000000000036,-10.000000000000044,310.00000000000136,300.0000000000013,300.0000000000013,210.00000000000094,160.0000000000007
-150.00000000000065,20.00000000000009,120.00000000000054,80.00000000000036,-140.00000000000063,50.00000000000022,-0.0,260.00000000000114,240.00000000000108,240.00000000000108,170.00000000000077,130.00000000000057
-130.00000000000057,-20.00000000000009,100.00000000000044,70.00000000000031,-110.00000000000048,30.000000000000135,-0.0,210.00000000000094,190.00000000000085,190.00000000000085,140.00000000000063,110.00000000000048
-90.0000000000004,-20.00000000000009,70.00000000000031,40.00000000000018,-80.00000000000036,30.000000000000135,-0.0,170.00000000000077,150.00000000000065,150.00000000000065,110.00000000000048,90.0000000000004
-50.00000000000022,-10.000000000000044,50.00000000000022,10.000000000000044,-40.00000000000018,20.00000000000009,-0.0,140.00000000000063,120.00000000000054,110.00000000000048,90.0000000000004,70.00000000000031
-20.00000000000009,-0.0,20.00000000000009,-0.0,-20.00000000000009,10.000000000000044,-0.0,110.00000000000048,90.0000000000004,90.0000000000004,60.00000000000027,50.00000000000022
-0.0,10.000000000000044,-0.0,-0.0,-0.0,-0.0,-0.0,90.0000000000004,70.00000000000031,60.00000000000027,40.00000000000018,40.00000000000018
-0.0,-0.0,-0.0,-0.0,-0.0,-0.0,-0.0,70.00000000000031,50.00000000000022,50.00000000000022,30.000000000000135,30.000000000000135
-0.0,-10.000000000000044,-10.000000000000044,-0.0,-0.0,-10.000000000000044,-0.0,50.00000000000022,40.00000000000018,30.000000000000135,20.00000000000009,20.00000000000009
-10.000000000000044,-10.000000000000044,-0.0,10.000000000000044,-0.0,-10.000000000000044,-0.0,40.00000000000018,30.000000000000135,20.00000000000009,10.000000000000044,10.000000000000044
-10.000000000000044,-20.00000000000009,-0.0,10.000000000000044,-0.0,-10.000000000000044,-0.0,30.000000000000135,20.00000000000009,10.000000000000044,10.000000000000044,10.000000000000044
-10.000000000000044,-20.00000000000009,-0.0,10.000000000000044,-0.0,-10.000000000000044,-0.0,20.00000000000009,20.00000000000009,10.000000000000044,-0.0,10.000000000000044
-10.000000000000044,-20.00000000000009,-0.0,10.000000000000044,-0.0,-10.000000000000044,-0.0,20.00000000000009,10.000000000000044,-0.0,-0.0,-0.0
-10.000000000000044,-20.00000000000009,-10.000000000000044,10.000000000000044,-0.0,-10.000000000000044,-0.0,20.00000000000009,10.000000000000044,-0.0,-0.0,-0.0
-0.0,-20.00000000000009,-20.00000000000009,10.000000000000044,-0.0,-20.00000000000009,-0.0,10.000000000000044,-0.0,-0.0,-0.0,-0.0
-0.0,-20.00000000000009,-20.00000000000009,-0.0,10.000000000000044,-20.00000000000009,-0.0,10.000000000000044,-0.0,-0.0,-0.0,-0.0
-0.0,-20.00000000000009,-20.00000000000009,-0.0,10.000000000000044,-20.00000000000009,-0.0,10.000000000000044,-0.0,-0.0,-0.0,-0.0
-0.0,-20.00000000000009,-20.00000000000009,-0.0,10.000000000000044,-20.00000000000009,-0.0,-0.0,-0.0,-0.0,-0.0,-0.0
-0.0,-10.000000000000044,-20.00000000000009,-0.0,10.000000000000044,-20.00000000000009,-0.0,-0.0,-0.0,-0.0,-0.0,-0.0
-0.0,-10.000000000000044,-20.00000000000009,-0.0,10.000000000000044,-20.00000000000009,-0.0,-0.0,-0.0,-0.0,-0.0,-0.0
10.000000000000044,-10.000000000000044,-20.00000000000009,-0.0,10.000000000000044,-10.000000000000044,-0.0,-0.0,-0.0,-0.0,-0.0,-0.0
10.000000000000044,-10.000000000000044,-20.00000000000009,-0.0,10.000000000000044,-10.000000000000044,-0.0,-0.0,-0.0,-0.0,-0.0,-0.0
10.000000000000044,-10.000000000000044,-30.000000000000135,-0.0,20.00000000000009,-20.00000000000009,-0.0,-0.0,-0.0,-0.0,-0.0,-0.0
20.00000000000009,-10.000000000000044,-30.000000000000135,-0.0,20.00000000000009,-20.00000000000009,-0.0,-0.0,-0.0,-0.0,-0.0,-0.0
20.00000000000009,-10.000000000000044,-40.00000000000018,-0.0,30.000000000000135,-20.00000000000009,-0.0,-0.0,-0.0,-0.0,-0.0,-0.0
30.000000000000135,-10.000000000000044,-40.00000000000018,-10.000000000000044,30.000000000000135,-20.00000000000009,-0.0,-0.0,-0.0,-0.0,-0.0,-0.0
30.000000000000135,-0.0,-40.00000000000018,-10.000000000000044,40.00000000000018,-20.00000000000009,-0.0,-0.0,-0.0,-0.0,-0.0,-0.0
40.00000000000018,-0.0,-50.00000000000022,-10.000000000000044,40.00000000000018,-20.00000000000009,-0.0,-0.0,-0.0,-0.0,-0.0,-0.0
40.00000000000018,-0.0,-40.00000000000018,-20.00000000000009,40.00000000000018,-20.00000000000009,-10.000000000000044,-0.0,-0.0,-0.0,-0.0,-0.0
40.00000000000018,-0.0,-40.00000000000018,-20.00000000000009,40.00000000000018,-10.000000000000044,-10.000000000000044,-0.0,-0.0,-0.0,-0.0,-0.0
40.00000000000018,-0.0,-30.000000000000135,-20.00000000000009,40.00000000000018,-10.000000000000044,-10.000000000000044,-0.0,-0.0,-0.0,-0.0,-0.0
40.00000000000018,-0.0,-30.000000000000135,-20.00000000000009,30.000000000000135,-10.000000000000044,-10.000000000000044,-0.0,-0.0,-0.0,-0.0,-0.0
40.00000000000018,10.000000000000044,-30.000000000000135,-20.00000000000009,40.00000000000018,-10.000000000000044,-10.000000000000044,10.000000000000044,10.000000000000044,-0.0,-0.0,-0.0
40.00000000000018,10.000000000000044,-30.000000000000135,-20.00000000000009,40.00000000000018,-10.000000000000044,-0.0,10.000000000000044,10.000000000000044,-0.0,-0.0,-0.0
40.00000000000018,10.000000000000044,-30.000000000000135,-20.00000000000009,30.000000000000135,-10.000000000000044,-0.0,10.000000000000044,10.000000000000044,-0.0,-0.0,-0.0
40.00000000000018,10.000000000000044,-30.000000000000135,-30.000000000000135,40.00000000000018,-10.000000000000044,-0.0,10.000000000000044,10.000000000000044,-0.0,-0.0,-10.000000000000044
50.00000000000022,10.000000000000044,-30.000000000000135,-30.000000000000135,40.00000000000018,-10.000000000000044,-0.0,10.000000000000044,10.000000000000044,-0.0,-0.0,-0.0
60.00000000000027,10.000000000000044,-40.00000000000018,-40.00000000000018,50.00000000000022,-0.0,-0.0,10.000000000000044,10.000000000000044,-0.0,-0.0,-0.0
70.00000000000031,10.000000000000044,-40.00000000000018,-50.00000000000022,50.00000000000022,-0.0,-0.0,10.000000000000044,20.00000000000009,-0.0,-0.0,-0.0
80.00000000000036,20.00000000000009,-40.00000000000018,-60.00000000000027,60.00000000000027,-0.0,-0.0,20.00000000000009,20.00000000000009,-0.0,-0.0,-0.0
90.0000000000004,30.000000000000135,-40.00000000000018,-70.00000000000031,60.00000000000027,-0.0,-0.0,20.00000000000009,20.00000000000009,-0.0,-0.0,-0.0
90.0000000000004,40.00000000000018,-40.00000000000018,-70.00000000000031,70.00000000000031,-0.0,-0.0,20.00000000000009,20.00000000000009,-0.0,-0.0,-0.0
100.00000000000044,50.00000000000022,-40.00000000000018,-80.00000000000036,70.00000000000031,-0.0,-0.0,20.00000000000009,20.00000000000009,10.000000000000044,-0.0,-0.0
100.00000000000044,50.00000000000022,-40.00000000000018,-90.0000000000004,70.00000000000031,10.000000000000044,-0.0,20.00000000000009,20.00000000000009,10.000000000000044,-0.0,-0.0
110.00000000000048,60.00000000000027,-40.00000000000018,-90.0000000000004,70.00000000000031,10.000000000000044,-0.0,20.00000000000009,20.00000000000009,-0.0,-0.0,-0.0
120.00000000000054,70.00000000000031,-30.000000000000135,-100.00000000000044,80.00000000000036,20.00000000000009,-0.0,20.00000000000009,20.00000000000009,-0.0,-0.0,-0.0
130.00000000000057,80.00000000000036,-30.000000000000135,-110.00000000000048,80.00000000000036,30.000000000000135,-0.0,20.00000000000009,20.00000000000009,-0.0,-0.0,-0.0
140.00000000000063,100.00000000000044,-20.00000000000009,-130.00000000000057,80.00000000000036,40.00000000000018,-0.0,20.00000000000009,20.00000000000009,-0.0,-0.0,-0.0
150.00000000000065,110.00000000000048,-20.00000000000009,-140.00000000000063,80.00000000000036,50.00000000000022,-0.0,20.00000000000009,20.00000000000009,-0.0,-0.0,-0.0
160.0000000000007,120.00000000000054,-20.00000000000009,-160.0000000000007,90.0000000000004,60.00000000000027,-0.0,20.00000000000009,20.00000000000009,-0.0,-0.0,-0.0
180.0000000000008,140.00000000000063,-20.00000000000009,-180.0000000000008,100.00000000000044,60.00000000000027,-0.0,20.00000000000009,20.00000000000009,-0.0,-0.0,-0.0
200.00000000000088,160.0000000000007,-30.000000000000135,-190.00000000000085,110.00000000000048,70.00000000000031,-0.0,20.00000000000009,10.000000000000044,-0.0,-0.0,-0.0
220.00000000000097,170.00000000000077,-30.000000000000135,-210.00000000000094,120.00000000000054,70.00000000000031,-0.0,20.00000000000009,10.000000000000044,-0.0,-0.0,-0.0
230.00000000000102,180.0000000000008,-30.000000000000135,-220.00000000000097,130.00000000000057,80.00000000000036,-0.0,20.00000000000009,10.000000000000044,-0.0,-0.0,-0.0
240.00000000000108,200.00000000000088,-30.000000000000135,-230.00000000000102,140.00000000000063,80.00000000000036,-0.0,10.000000000000044,10.000000000000044,-0.0,-0.0,-0.0
250.0000000000011,210.00000000000094,-20.00000000000009,-240.00000000000108,130.00000000000057,100.00000000000044,-0.0,10.000000000000044,10.000000000000044,-0.0,-0.0,-0.0
250.0000000000011,220.00000000000097,-10.000000000000044,-250.0000000000011,120.00000000000054,110.00000000000048,-0.0,10.000000000000044,10.000000000000044,-0.0,-0.0,-0.0
260.00000000000114,240.00000000000108,-0.0,-260.00000000000114,120.00000000000054,130.00000000000057,-0.0,10.000000000000044,-0.0,-0.0,-0.0,-0.0
260.00000000000114,260.00000000000114,10.000000000000044,-280.00000000000125,120.00000000000054,150.00000000000065,-0.0,10.000000000000044,-0.0,-0.0,-0.0,-0.0
270.0000000000012,280.00000000000125,20.00000000000009,-280.00000000000125,110.00000000000048,160.0000000000007,-0.0,10.000000000000044,-0.0,-0.0,-0.0,-0.0
270.0000000000012,300.0000000000013,30.000000000000135,-290.0000000000013,110.00000000000048,170.00000000000077,-0.0,-0.0,-0.0,-0.0,-0.0,-0.0
270.0000000000012,310.00000000000136,50.00000000000022,-300.0000000000013,100.00000000000044,180.0000000000008,-0.0,-0.0,-0.0,-0.0,-0.0,-0.0
260.00000000000114,320.0000000000014,50.00000000000022,-290.0000000000013,100.00000000000044,190.00000000000085,-0.0,-0.0,-0.0,-0.0,-0.0,-0.0
240.00000000000108,320.0000000000014,60.00000000000027,-290.0000000000013,80.00000000000036,190.00000000000085,-0.0,-0.0,-0.0,-0.0,-0.0,-0.0
230.00000000000102,320.0000000000014,70.00000000000031,-280.00000000000125,70.00000000000031,190.00000000000085,-0.0,-0.0,-0.0,-0.0,-0.0,-0.0
200.00000000000088,310.00000000000136,80.00000000000036,-260.00000000000114,60.00000000000027,190.00000000000085,-0.0,-0.0,-0.0,-10.000000000000044,-0.0,-0.0
180.0000000000008,290.0000000000013,90.0000000000004,-230.00000000000102,40.00000000000018,180.0000000000008,-0.0,-0.0,-0.0,-10.000000000000044,-0.0,-10.000000000000044
160.0000000000007,270.0000000000012,80.00000000000036,-210.00000000000094,40.00000000000018,160.0000000000007,-0.0,-0.0,-0.0,-10.000000000000044,-0.0,-10.000000000000044
140.00000000000063,250.0000000000011,70.00000000000031,-180.0000000000008,30.000000000000135,140.00000000000063,-0.0,-0.0,-0.0,-10.000000000000044,-0.0,-10.000000000000044
120.00000000000054,220.00000000000097,60.00000000000027,-160.0000000000007,20.00000000000009,120.00000000000054,-0.0,-0.0,-0.0,-10.000000000000044,-0.0,-10.000000000000044
100.00000000000044,190.00000000000085,50.00000000000022,-130.00000000000057,20.00000000000009,100.00000000000044,-0.0,-0.0,-0.0,-10.000000000000044,-0.0,-10.000000000000044
80.00000000000036,160.0000000000007,50.00000000000022,-110.00000000000048,10.000000000000044,90.0000000000004,-0.0,-0.0,-10.000000000000044,-10.000000000000044,-10.000000000000044,-10.000000000000044
60.00000000000027,130.00000000000057,40.00000000000018,-90.0000000000004,-0.0,80.00000000000036,-0.0,-0.0,-10.000000000000044,-10.000000000000044,-10.000000000000044,-10.000000000000044
40.00000000000018,110.00000000000048,40.00000000000018,-70.00000000000031,-0.0,60.00000000000027,-0.0,-0.0,-10.000000000000044,-10.000000000000044,-10.000000000000044,-10.000000000000044
30.000000000000135,90.0000000000004,30.000000000000135,-60.00000000000027,-0.0,50.00000000000022,-0.0,-0.0,-10.000000000000044,-10.000000000000044,-10.000000000000044,-10.000000000000044
20.00000000000009,70.00000000000031,20.00000000000009,-40.00000000000018,-0.0,40.00000000000018,-0.0,-0.0,-10.000000000000044,-10.000000000000044,-10.000000000000044,-10.000000000000044
20.00000000000009,50.00000000000022,10.000000000000044,-30.000000000000135,-0.0,30.000000000000135,-0.0,-0.0,-10.000000000000044,-10.000000000000044,-10.000000000000044,-10.000000000000044
20.00000000000009,40.00000000000018,10.000000000000044,-30.000000000000135,-0.0,20.00000000000009,-0.0,-0.0,-10.000000000000044,-10.000000000000044,-10.000000000000044,-10.000000000000044
10.000000000000044,30.000000000000135,-0.0,-20.00000000000009,-0.0,10.000000000000044,-0.0,-0.0,-10.000000000000044,-10.000000000000044,-10.000000000000044,-10.000000000000044
10.000000000000044,20.00000000000009,-0.0,-10.000000000000044,-0.0,-0.0,-0.0,-0.0,-10.000000000000044,-10.000000000000044,-10.000000000000044,-10.000000000000044
-0.0,10.000000000000044,-0.0,-10.000000000000044,-0.0,-0.0,-0.0,-0.0,-0.0,-10.000000000000044,-10.000000000000044,-10.000000000000044
-0.0,-0.0,-0.0,-0.0,-0.0,-0.0,-0.0,-0.0,-0.0,-10.000000000000044,-10.000000000000044,-10.000000000000044
-0.0,-0.0,-0.0,-0.0,-0.0,-0.0,-0.0,-0.0,-0.0,-10.000000000000044,-10.000000000000044,-10.000000000000044
-0.0,-0.0,-0.0,-0.0,-0.0,-0.0,-0.0,-0.0,-0.0,-10.000000000000044,-0.0,-10.000000000000044
-10.000000000000044,-0.0,-0.0,-0.0,-10.000000000000044,-0.0,-0.0,-0.0,-0.0,-0.0,-0.0,-0.0
-10.000000000000044,-0.0,10.000000000000044,-0.0,-10.000000000000044,-0.0,-0.0,-0.0,-0.0,-0.0,-0.0,-0.0
-10.000000000000044,-0.0,10.000000000000044,-0.0,-10.000000000000044,-0.0,-0.0,-0.0,-0.0,-0.0,-0.0,-0.0
-0.0,-0.0,-0.0,-0.0,-10.000000000000044,-0.0,-0.0,-0.0,-0.0,-0.0,-0.0,-0.0
-0.0,-0.0,-0.0,-0.0,-0.0,-0.0,-0.0,-0.0,-0.0,-0.0,-0.0,-0.0
-0.0,-0.0,-0.0,-0.0,-0.0,-0.0,-0.0,-0.0,-0.0,-0.0,-0.0,-0.0
-0.0,-0.0,-0.0,-0.0,-0.0,-0.0,-0.0,-0.0,-0.0,-10.000000000000044,-0.0,-0.0
-0.0,-0.0,-0.0,-0.0,-0.0,-0.0,-0.0,-0.0,-10.000000000000044,-10.000000000000044,-0.0,-0.0
-0.0,-0.0,-0.0,-0.0,-0.0,-0.0,-0.0,-0.0,-10.000000000000044,-10.000000000000044,-0.0,-0.0
-0.0,-0.0,-0.0,-0.0,-0.0,-0.0,-0.0,-0.0,-10.000000000000044,-10.000000000000044,-0.0,-0.0
-0.0,-0.0,-0.0,-0.0,-0.0,-0.0,-0.0,-10.000000000000044,-10.000000000000044,-10.000000000000044,-0.0,-0.0
-0.0,-0.0,-0.0,-0.0,-0.0,-0.0,-0.0,-10.000000000000044,-10.000000000000044,-10.000000000000044,-0.0,-0.0
-0.0,-0.0,-0.0,-0.0,-0.0,-0.0,-0.0,-10.000000000000044,-10.000000000000044,-10.000000000000044,-0.0,-0.0
-0.0,-0.0,-0.0,-0.0,-0.0,-0.0,-0.0,-0.0,-10.000000000000044,-10.000000000000044,-0.0,-0.0
-0.0,-0.0,10.000000000000044,-0.0,-0.0,-0.0,-0.0,-0.0,-10.000000000000044,-10.000000000000044,-0.0,-0.0
-10.000000000000044,-0.0,10.000000000000044,-0.0,-10.000000000000044,-0.0,-0.0,-0.0,-0.0,-10.000000000000044,-0.0,-0.0
-10.000000000000044,-0.0,10.000000000000044,-0.0,-10.000000000000044,-0.0,-0.0,-0.0,-0.0,-10.000000000000044,-0.0,-0.0
-10.000000000000044,-0.0,10.000000000000044,-0.0,-10.000000000000044,-0.0,-0.0,-0.0,-0.0,-10.000000000000044,-0.0,-0.0
-10.000000000000044,-0.0,10.000000000000044,-0.0,-10.000000000000044,-0.0,-0.0,-0.0,-0.0,-10.000000000000044,-0.0,-0.0
-0.0,-0.0,-0.0,-0.0,-0.0,-0.0,-0.0,-0.0,-0.0,-10.000000000000044,-0.0,-0.0
-0.0,-0.0,-0.0,-0.0,-0.0,-0.0,-0.0,-0.0,-0.0,-10.000000000000044,-0.0,-0.0
-0.0,-0.0,-0.0,-0.0,-0.0,-0.0,-0.0,-0.0,-0.0,-10.000000000000044,-0.0,-0.0
-0.0,-0.0,-0.0,-0.0,-0.0,-0.0,-0.0,-0.0,-0.0,-10.000000000000044,-0.0,-0.0
-0.0,10.000000000000044,-0.0,-0.0,-0.0,-0.0,-0.0,-0.0,-0.0,-10.000000000000044,-0.0,-0.0
-0.0,10.000000000000044,-0.0,-0.0,-0.0,-0.0,-0.0,-0.0,-0.0,-0.0,-0.0,-0.0
-0.0,10.000000000000044,-0.0,-0.0,-0.0,-0.0,-0.0,-0.0,-0.0,-0.0,-0.0,-0.0
-0.0,-0.0,-0.0,-0.0,-0.0,-0.0,-0.0,-0.0,-0.0,-0.0,-0.0,-0.0
-0.0,-0.0,-0.0,-0.0,-0.0,-0.0,-0.0,-0.0,-0.0,-0.0,-0.0,-0.0
-0.0,10.000000000000044,-0.0,-0.0,-0.0,-0.0,-0.0,-0.0,-0.0,-10.000000000000044,-0.0,-0.0
-0.0,10.000000000000044,-0.0,-0.0,-0.0,10.000000000000044,-0.0,-0.0,-10.000000000000044,-10.000000000000044,-0.0,-0.0
-0.0,10.000000000000044,10.000000000000044,-0.0,-0.0,10.000000000000044,-0.0,-0.0,-10.000000000000044,-10.000000000000044,-0.0,-0.0
-0.0,10.000000000000044,10.000000000000044,-0.0,-0.0,10.000000000000044,-0.0,-0.0,-10.000000000000044,-10.000000000000044,-0.0,-0.0
-0.0,10.000000000000044,-0.0,-0.0,-0.0,-0.0,-0.0,-0.0,-0.0,-0.0,-0.0,-0.0
-0.0,10.000000000000044,-0.0,-0.0,-0.0,-0.0,-0.0,-0.0,-0.0,-0.0,-0.0,-0.0
-0.0,10.000000000000044,-0.0,-0.0,-0.0,-0.0,-0.0,-0.0,-0.0,-0.0,-0.0,-0.0
-0.0,-0.0,-0.0,-0.0,-0.0,-0.0,-0.0,-0.0,-0.0,-0.0,-0.0,-0.0
-0.0,-0.0,-0.0,-0.0,-0.0,-0.0,-0.0,-0.0,-0.0,-0.0,-0.0,-0.0
-0.0,-0.0,-0.0,-0.0,-0.0,-0.0,-0.0,-0.0,-0.0,-0.0,-0.0,-0.0
-0.0,-0.0,-0.0,-0.0,-0.0,-0.0,-0.0,-0.0,-0.0,-0.0,-0.0,-0.0
-0.0,-0.0,-0.0,-0.0,-0.0,-0.0,-0.0,-0.0,10.000000000000044,10.000000000000044,10.000000000000044,10.000000000000044
-0.0,-0.0,-0.0,-0.0,-0.0,-0.0,-0.0,-0.0,10.000000000000044,10.000000000000044,10.000000000000044,10.000000000000044
-0.0,-0.0,-0.0,-0.0,-0.0,-0.0,10.000000000000044,10.000000000000044,20.00000000000009,20.00000000000009,10.000000000000044,20.00000000000009
-0.0,-0.0,-0.0,-0.0,-0.0,-0.0,10.000000000000044,10.000000000000044,30.000000000000135,20.00000000000009,20.00000000000009,20.00000000000009
-0.0,-0.0,-0.0,-0.0,-0.0,-0.0,20.00000000000009,20.00000000000009,30.000000000000135,30.000000000000135,30.000000000000135,30.000000000000135
-0.0,-0.0,-0.0,-0.0,-0.0,-0.0,10.000000000000044,20.00000000000009,30.000000000000135,30.000000000000135,30.000000000000135,30.000000000000135
-0.0,-0.0,-0.0,-0.0,-0.0,-0.0,-0.0,20.00000000000009,30.000000000000135,30.000000000000135,30.000000000000135,30.000000000000135
-0.0,-0.0,-0.0,-0.0,-0.0,-0.0,-0.0,20.00000000000009,30.000000000000135,40.00000000000018,40.00000000000018,40.00000000000018
-0.0,-0.0,-0.0,-0.0,-0.0,-0.0,-20.00000000000009,10.000000000000044,30.000000000000135,40.00000000000018,40.00000000000018,40.00000000000018
-0.0,-0.0,-0.0,-0.0,-0.0,-0.0,-30.000000000000135,10.000000000000044,20.00000000000009,40.00000000000018,50.00000000000022,50.00000000000022
-0.0,-0.0,-0.0,-0.0,-0.0,-0.0,-40.00000000000018,-0.0,20.00000000000009,40.00000000000018,50.00000000000022,50.00000000000022
-0.0,-0.0,-0.0,-0.0,-0.0,-0.0,-40.00000000000018,-0.0,20.00000000000009,40.00000000000018,50.00000000000022,50.00000000000022
-0.0,-0.0,-0.0,-0.0,-0.0,-0.0,-40.00000000000018,-0.0,20.00000000000009,30.000000000000135,50.00000000000022,50.00000000000022
-0.0,-0.0,-0.0,-0.0,-0.0,-0.0,-30.000000000000135,-0.0,10.000000000000044,30.000000000000135,40.00000000000018,50.00000000000022
-0.0,-0.0,-0.0,-0.0,-0.0,-0.0,-30.000000000000135,-0.0,10.000000000000044,20.00000000000009,40.00000000000018,40.00000000000018
-0.0,-0.0,-0.0,-0.0,-0.0,-0.0,-20.00000000000009,-0.0,-0.0,10.000000000000044,30.000000000000135,40.00000000000018
-0.0,-0.0,-0.0,-0.0,-0.0,-0.0,-20.00000000000009,-0.0,-0.0,10.000000000000044,20.00000000000009,30.000000000000135
-0.0,-0.0,-0.0,-0.0,-0.0,-0.0,-20.00000000000009,-10.000000000000044,-0.0,-0.0,10.000000000000044,20.00000000000009
-0.0,-0.0,-0.0,-0.0,-0.0,-0.0,-10.000000000000044,-10.000000000000044,-0.0,-0.0,-0.0,10.000000000000044
-0.0,-10.000000000000044,-10.000000000000044,-0.0,-0.0,-10.000000000000044,-10.000000000000044,-10.000000000000044,-10.000000000000044,-0.0,-0.0,-0.0
-0.0,-10.000000000000044,-10.000000000000044,-0.0,-0.0,-10.000000000000044,-0.0,-10.000000000000044,-10.000000000000044,-0.0,-0.0,-0.0
-0.0,-10.000000000000044,-10.000000000000044,-0.0,-0.0,-10.000000000000044,-0.0,-10.000000000000044,-20.00000000000009,-10.000000000000044,-10.000000000000044,-0.0
-0.0,-10.000000000000044,-10.000000000000044,-0.0,-0.0,-0.0,-0.0,-20.00000000000009,-20.00000000000009,-10.000000000000044,-10.000000000000044,-10.000000000000044
-0.0,-0.0,-0.0,-0.0,-0.0,-0.0,-0.0,-20.00000000000009,-20.00000000000009,-20.00000000000009,-20.00000000000009,-10.000000000000044
-0.0,-0.0,-0.0,-0.0,-0.0,-0.0,-0.0,-20.00000000000009,-30.000000000000135,-20.00000000000009,-20.00000000000009,-20.00000000000009
-0.0,-0.0,-0.0,-0.0,-0.0,-0.0,-0.0,-30.000000000000135,-30.000000000000135,-20.00000000000009,-30.000000000000135,-20.00000000000009
-0.0,-0.0,-0.0,-0.0,-0.0,-0.0,-0.0,-30.000000000000135,-30.000000000000135,-20.00000000000009,-30.000000000000135,-20.00000000000009
-0.0,-0.0,-0.0,-0.0,-0.0,-0.0,-0.0,-30.000000000000135,-30.000000000000135,-20.00000000000009,-30.000000000000135,-20.00000000000009
-0.0,-0.0,-0.0,-0.0,-0.0,-0.0,-0.0,-30.000000000000135,-30.000000000000135,-20.00000000000009,-30.000000000000135,-20.00000000000009
-0.0,-0.0,-0.0,-0.0,-0.0,-0.0,-0.0,-20.00000000000009,-20.00000000000009,-30.000000000000135,-30.000000000000135,-30.000000000000135
-0.0,-0.0,-0.0,-0.0,-0.0,-0.0,-0.0,-20.00000000000009,-20.00000000000009,-40.00000000000018,-30.000000000000135,-30.000000000000135
-0.0,-10.000000000000044,-0.0,-0.0,-0.0,-0.0,-0.0,-20.00000000000009,-20.00000000000009,-50.00000000000022,-30.000000000000135,-30.000000000000135
-0.0,-10.000000000000044,-0.0,-0.0,-0.0,-0.0,-0.0,-20.00000000000009,-20.00000000000009,-50.00000000000022,-40.00000000000018,-30.000000000000135
-0.0,-10.000000000000044,-0.0,-0.0,-0.0,-0.0,-0.0,-20.00000000000009,-20.00000000000009,-50.00000000000022,-40.00000000000018,-30.000000000000135
-0.0,-10.000000000000044,-0.0,-0.0,-0.0,-0.0,-0.0,-20.00000000000009,-20.00000000000009,-50.00000000000022,-40.00000000000018,-30.000000000000135
-0.0,-10.000000000000044,-0.0,-0.0,-0.0,-0.0,-0.0,-20.00000000000009,-30.000000000000135,-60.00000000000027,-40.00000000000018,-40.00000000000018
-0.0,-0.0,-0.0,-0.0,-0.0,-0.0,-0.0,-20.00000000000009,-40.00000000000018,-60.00000000000027,-50.00000000000022,-50.00000000000022
-0.0,-0.0,-0.0,-0.0,-0.0,-0.0,-0.0,-10.000000000000044,-30.000000000000135,-60.00000000000027,-60.00000000000027,-50.00000000000022
-0.0,-0.0,-0.0,-0.0,-0.0,-0.0,20.00000000000009,-0.0,-0.0,-40.00000000000018,-60.00000000000027,-60.00000000000027
-0.0,-0.0,-0.0,-0.0,-0.0,-0.0,40.00000000000018,10.000000000000044,50.00000000000022,10.000000000000044,-60.00000000000027,-60.00000000000027
-0.0,-0.0,-0.0,-0.0,-0.0,-0.0,30.000000000000135,40.00000000000018,140.00000000000063,90.0000000000004,-30.000000000000135,-30.000000000000135
-0.0,-0.0,-0.0,-0.0,-0.0,-0.0,10.000000000000044,80.00000000000036,230.00000000000102,230.00000000000102,30.000000000000135,20.00000000000009
-0.0,-0.0,-0.0,-0.0,-0.0,-0.0,-30.000000000000135,110.00000000000048,320.0000000000014,400.00000000000176,120.00000000000054,90.0000000000004
-0.0,-10.000000000000044,-0.0,10.000000000000044,-0.0,-10.000000000000044,-110.00000000000048,70.00000000000031,370.00000000000165,580.0000000000026,240.00000000000108,190.00000000000085
-0.0,-10.000000000000044,-0.0,10.000000000000044,-0.0,-10.000000000000044,-220.00000000000097,-40.00000000000018,330.0000000000015,710.0000000000032,380.0000000000017,290.0000000000013
-0.0,-10.000000000000044,-10.000000000000044,10.000000000000044,-0.0,-10.000000000000044,-360.0000000000016,-220.00000000000097,210.00000000000094,760.0000000000034,510.0000000000023,380.0000000000017
-0.0,-10.000000000000044,-10.000000000000044,-0.0,-0.0,-10.000000000000044,-480.00000000000216,-470.0000000000021,20.00000000000009,670.000000000003,580.0000000000026,440.00000000000193
-0.0,-10.000000000000044,-10.000000000000044,-0.0,-0.0,-10.000000000000044,-580.0000000000026,-740.0000000000033,-220.00000000000097,480.00000000000216,570.0000000000025,450.000000000002
-0.0,-10.000000000000044,-10.000000000000044,-0.0,-0.0,-10.000000000000044,-630.0000000000028,-980.0000000000043,-450.000000000002,220.00000000000097,490.00000000000216,390.0000000000017
-0.0,-10.000000000000044,-10.000000000000044,-0.0,-0.0,-10.000000000000044,-630.0000000000028,-1120.000000000005,-620.0000000000027,-30.000000000000135,350.00000000000153,290.0000000000013
-0.0,-10.000000000000044,-10.000000000000044,-0.0,-0.0,-10.000000000000044,-580.0000000000026,-1150.000000000005,-700.0000000000031,-230.00000000000102,190.00000000000085,180.0000000000008
-0.0,-10.000000000000044,-10.000000000000044,-0.0,-0.0,-10.000000000000044,-510.0000000000023,-1060.0000000000048,-650.0000000000028,-340.00000000000153,50.00000000000022,80.00000000000036
-0.0,-10.000000000000044,-10.000000000000044,10.000000000000044,-0.0,-10.000000000000044,-420.0000000000019,-890.000000000004,-530.0000000000024,-340.00000000000153,-40.00000000000018,10.000000000000044
-0.0,-20.00000000000009,-10.000000000000044,10.000000000000044,-0.0,-10.000000000000044,-340.00000000000153,-680.0000000000031,-380.0000000000017,-260.00000000000114,-80.00000000000036,-20.00000000000009
-0.0,-20.00000000000009,-10.000000000000044,10.000000000000044,-0.0,-20.00000000000009,-260.00000000000114,-480.00000000000216,-240.00000000000108,-170.00000000000077,-60.00000000000027,-20.00000000000009
-0.0,-20.00000000000009,-10.000000000000044,10.000000000000044,-0.0,-20.00000000000009,-190.00000000000085,-320.0000000000014,-130.00000000000057,-90.0000000000004,-30.000000000000135,-10.000000000000044
-0.0,-20.00000000000009,-20.00000000000009,-0.0,-0.0,-20.00000000000009,-130.00000000000057,-200.00000000000088,-70.00000000000031,-40.00000000000018,-10.000000000000044,-0.0
-0.0,-20.00000000000009,-20.00000000000009,-0.0,10.000000000000044,-10.000000000000044,-80.00000000000036,-130.00000000000057,-40.00000000000018,-20.00000000000009,-0.0,-0.0
-0.0,-10.000000000000044,-20.00000000000009,-0.0,10.000000000000044,-10.000000000000044,-40.00000000000018,-80.00000000000036,-30.000000000000135,-30.000000000000135,-0.0,-10.000000000000044
-0.0,-10.000000000000044,-20.00000000000009,-0.0,10.000000000000044,-10.000000000000044,-20.00000000000009,-50.00000000000022,-30.000000000000135,-30.000000000000135,-10.000000000000044,-20.00000000000009
-0.0,-10.000000000000044,-10.000000000000044,-0.0,-0.0,-10.000000000000044,-0.0,-30.000000000000135,-20.00000000000009,-40.00000000000018,-20.00000000000009,-30.000000000000135
-0.0,-10.000000000000044,-10.000000000000044,-0.0,-0.0,-10.000000000000044,-0.0,-20.00000000000009,-10.000000000000044,-30.000000000000135,-20.00000000000009,-30.000000000000135
-0.0,-10.000000000000044,-10.000000000000044,-0.0,-0.0,-10.000000000000044,-0.0,-0.0,-0.0,-20.00000000000009,-20.00000000000009,-30.000000000000135
-0.0,-10.000000000000044,-0.0,-0.0,-0.0,-0.0,10.000000000000044,10.000000000000044,10.000000000000044,-10.000000000000044,-20.00000000000009,-30.000000000000135
-10.000000000000044,-10.000000000000044,-0.0,10.000000000000044,-0.0,-0.0,10.000000000000044,20.00000000000009,20.00000000000009,-0.0,-20.00000000000009,-30.000000000000135
-10.000000000000044,-10.000000000000044,-0.0,-0.0,-0.0,-0.0,20.00000000000009,40.00000000000018,30.000000000000135,-0.0,-20.00000000000009,-30.000000000000135
-0.0,-10.000000000000044,-0.0,-0.0,-0.0,-0.0,20.00000000000009,50.00000000000022,40.00000000000018,-0.0,-20.00000000000009,-30.000000000000135
-0.0,-0.0,-0.0,-0.0,-0.0,-0.0,30.000000000000135,60.00000000000027,50.00000000000022,-0.0,-20.00000000000009,-30.000000000000135
10.000000000000044,-0.0,-0.0,-20.00000000000009,-0.0,10.000000000000044,30.000000000000135,70.00000000000031,50.00000000000022,10.000000000000044,-10.000000000000044,-30.000000000000135
10.000000000000044,10.000000000000044,10.000000000000044,-20.00000000000009,-0.0,20.00000000000009,30.000000000000135,80.00000000000036,60.00000000000027,10.000000000000044,-10.000000000000044,-20.00000000000009
20.00000000000009,30.000000000000135,10.000000000000044,-30.000000000000135,-0.0,20.00000000000009,40.00000000000018,100.00000000000044,70.00000000000031,20.00000000000009,-10.000000000000044,-20.00000000000009
20.00000000000009,30.000000000000135,10.000000000000044,-30.000000000000135,-0.0,30.000000000000135,40.00000000000018,100.00000000000044,90.0000000000004,30.000000000000135,-0.0,-10.000000000000044
10.000000000000044,40.00000000000018,30.000000000000135,-30.000000000000135,-0.0,40.00000000000018,40.00000000000018,110.00000000000048,90.0000000000004,40.00000000000018,-0.0,-10.000000000000044
