I,II,III,aVR,aVL,aVF,V1,V2,V3,V4,V5,V6
10.000000000000044,-30.000000000000135,-60.00000000000027,-0.0,30.000000000000135,-50.00000000000022,-0.0,-0.0,-110.00000000000048,-100.00000000000044,-0.0,-0.0
10.000000000000044,-40.00000000000018,-70.00000000000031,10.000000000000044,40.00000000000018,-60.00000000000027,-0.0,-0.0,-100.00000000000044,-90.0000000000004,-50.00000000000022,-40.00000000000018
-0.0,-50.00000000000022,-70.00000000000031,20.00000000000009,40.00000000000018,-70.00000000000031,-0.0,-0.0,-100.00000000000044,-90.0000000000004,-40.00000000000018,-40.00000000000018
-0.0,-60.00000000000027,-70.00000000000031,30.000000000000135,30.000000000000135,-70.00000000000031,-0.0,-0.0,-100.00000000000044,-80.00000000000036,-40.00000000000018,-30.000000000000135
-20.00000000000009,-70.00000000000031,-60.00000000000027,40.00000000000018,20.00000000000009,-70.00000000000031,-0.0,10.000000000000044,-90.0000000000004,-80.00000000000036,-30.000000000000135,-30.000000000000135
-30.000000000000135,-80.00000000000036,-60.00000000000027,60.00000000000027,10.000000000000044,-80.00000000000036,-0.0,10.000000000000044,-80.00000000000036,-70.00000000000031,-30.000000000000135,-20.00000000000009
-40.00000000000018,-90.0000000000004,-60.00000000000027,60.00000000000027,-0.0,-80.00000000000036,-0.0,10.000000000000044,-80.00000000000036,-70.00000000000031,-20.00000000000009,-20.00000000000009
-40.00000000000018,-100.00000000000044,-70.00000000000031,70.00000000000031,-0.0,-90.0000000000004,-0.0,20.00000000000009,-70.00000000000031,-70.00000000000031,-20.00000000000009,-20.00000000000009
-40.00000000000018,-110.00000000000048,-90.0000000000004,80.00000000000036,10.000000000000044,-100.00000000000044,-0.0,20.00000000000009,-70.00000000000031,-70.00000000000031,-20.00000000000009,-20.00000000000009
-30.000000000000135,-120.00000000000054,-110.00000000000048,80.00000000000036,30.000000000000135,-120.00000000000054,-0.0,20.00000000000009,-70.00000000000031,-60.00000000000027,-20.00000000000009,-20.00000000000009
-20.00000000000009,-140.00000000000063,-130.00000000000057,90.0000000000004,40.00000000000018,-150.00000000000065,-0.0,30.000000000000135,-70.00000000000031,-60.00000000000027,-30.000000000000135,-20.00000000000009
-20.00000000000009,-160.0000000000007,-280.00000000000125,100.00000000000044,60.00000000000027,-170.00000000000077,-0.0,30.000000000000135,-60.00000000000027,-60.00000000000027,-20.00000000000009,-20.00000000000009
-20.00000000000009,-290.0000000000013,-280.00000000000125,90.0000000000004,60.00000000000027,-260.00000000000114,-10.000000000000044,40.00000000000018,-60.00000000000027,-60.00000000000027,-20.00000000000009,-20.00000000000009
-10.000000000000044,-290.0000000000013,-130.00000000000057,70.00000000000031,60.00000000000027,-260.00000000000114,-10.000000000000044,40.00000000000018,-50.00000000000022,-50.00000000000022,-20.00000000000009,-10.000000000000044
10.000000000000044,-270.0000000000012,-80.00000000000036,20.00000000000009,40.00000000000018,-260.00000000000114,-20.00000000000009,40.00000000000018,-50.00000000000022,-50.00000000000022,-10.000000000000044,-10.000000000000044
60.00000000000027,-60.00000000000027,10.000000000000044,-70.00000000000031,20.00000000000009,-250.0000000000011,-20.00000000000009,50.00000000000022,-40.00000000000018,-40.00000000000018,-10.000000000000044,-10.000000000000044
110.00000000000048,70.00000000000031,140.00000000000063,-200.00000000000088,-20.00000000000009,-250.0000000000011,-10.000000000000044,50.00000000000022,-30.000000000000135,-30.000000000000135,-0.0,-0.0
150.00000000000065,250.0000000000011,300.0000000000013,-320.0000000000014,-70.00000000000031,-250.0000000000011,-0.0,70.00000000000031,-20.00000000000009,-20.00000000000009,-0.0,-0.0
180.0000000000008,460.00000000000205,470.0000000000021,-320.0000000000014,-150.00000000000065,-250.0000000000011,-0.0,80.00000000000036,-0.0,-10.000000000000044,10.000000000000044,-0.0
150.00000000000065,650.0000000000028,620.0000000000027,-310.00000000000136,-230.00000000000102,-250.0000000000011,10.000000000000044,100.00000000000044,-0.0,-0.0,20.00000000000009,10.000000000000044
80.00000000000036,780.0000000000034,730.0000000000033,-310.00000000000136,-310.00000000000136,-250.0000000000011,20.00000000000009,110.00000000000048,10.000000000000044,10.000000000000044,30.000000000000135,10.000000000000044
-20.00000000000009,830.0000000000036,780.0000000000034,-330.0000000000015,-330.0000000000015,-310.00000000000136,20.00000000000009,130.00000000000057,20.00000000000009,20.00000000000009,40.00000000000018,20.00000000000009
-130.00000000000057,760.0000000000034,750.0000000000033,-300.0000000000013,-320.0000000000014,-320.0000000000014,30.000000000000135,140.00000000000063,40.00000000000018,40.00000000000018,40.00000000000018,30.000000000000135
-220.00000000000097,630.0000000000028,670.000000000003,-120.00000000000054,-330.0000000000015,-330.0000000000015,30.000000000000135,160.0000000000007,50.00000000000022,60.00000000000027,50.00000000000022,40.00000000000018
-270.0000000000012,450.000000000002,550.0000000000024,-10.000000000000044,-340.00000000000153,-330.0000000000015,30.000000000000135,180.0000000000008,60.00000000000027,70.00000000000031,60.00000000000027,40.00000000000018
-280.00000000000125,280.00000000000125,430.00000000000193,60.00000000000027,-340.00000000000153,-340.00000000000153,30.000000000000135,190.00000000000085,70.00000000000031,80.00000000000036,60.00000000000027,40.00000000000018
-250.0000000000011,150.00000000000065,320.0000000000014,90.0000000000004,-280.00000000000125,190.00000000000085,30.000000000000135,200.00000000000088,80.00000000000036,90.0000000000004,60.00000000000027,50.00000000000022
-200.00000000000088,60.00000000000027,230.00000000000102,80.00000000000036,-220.00000000000097,130.00000000000057,30.000000000000135,210.00000000000094,90.0000000000004,100.00000000000044,70.00000000000031,50.00000000000022
-160.0000000000007,20.00000000000009,170.00000000000077,60.00000000000027,-170.00000000000077,90.0000000000004,20.00000000000009,220.00000000000097,100.00000000000044,100.00000000000044,70.00000000000031,50.00000000000022
-130.00000000000057,10.000000000000044,120.00000000000054,50.00000000000022,-130.00000000000057,60.00000000000027,20.00000000000009,240.00000000000108,110.00000000000048,110.00000000000048,80.00000000000036,60.00000000000027
-110.00000000000048,-0.0,90.0000000000004,60.00000000000027,-100.00000000000044,30.000000000000135,20.00000000000009,250.0000000000011,120.00000000000054,120.00000000000054,80.00000000000036,70.00000000000031
-100.00000000000044,-10.000000000000044,60.00000000000027,60.00000000000027,-80.00000000000036,10.000000000000044,30.000000000000135,270.0000000000012,140.00000000000063,140.00000000000063,90.0000000000004,80.00000000000036
-90.0000000000004,-30.000000000000135,20.00000000000009,70.00000000000031,-60.00000000000027,-10.000000000000044,40.00000000000018,290.0000000000013,150.00000000000065,140.00000000000063,100.00000000000044,80.00000000000036
-80.00000000000036,-60.00000000000027,-10.000000000000044,80.00000000000036,-30.000000000000135,-40.00000000000018,40.00000000000018,300.0000000000013,150.00000000000065,150.00000000000065,100.00000000000044,90.0000000000004
-60.00000000000027,-80.00000000000036,-30.000000000000135,80.00000000000036,-10.000000000000044,-60.00000000000027,50.00000000000022,310.00000000000136,150.00000000000065,140.00000000000063,100.00000000000044,80.00000000000036
-50.00000000000022,-100.00000000000044,-50.00000000000022,80.00000000000036,-0.0,-80.00000000000036,50.00000000000022,310.00000000000136,150.00000000000065,140.00000000000063,90.0000000000004,80.00000000000036
-50.00000000000022,-100.00000000000044,-60.00000000000027,80.00000000000036,-0.0,-90.0000000000004,60.00000000000027,300.0000000000013,150.00000000000065,140.00000000000063,90.0000000000004,80.00000000000036
-40.00000000000018,-110.00000000000048,-70.00000000000031,80.00000000000036,10.000000000000044,-90.0000000000004,60.00000000000027,300.0000000000013,160.0000000000007,140.00000000000063,90.0000000000004,80.00000000000036
-40.00000000000018,-110.00000000000048,-70.00000000000031,70.00000000000031,10.000000000000044,-90.0000000000004,70.00000000000031,300.0000000000013,170.00000000000077,150.00000000000065,100.00000000000044,80.00000000000036
-20.00000000000009,-110.00000000000048,-80.00000000000036,60.00000000000027,20.00000000000009,-90.0000000000004,80.00000000000036,300.0000000000013,180.0000000000008,160.0000000000007,100.00000000000044,90.0000000000004
-10.000000000000044,-110.00000000000048,-80.00000000000036,50.00000000000022,30.000000000000135,-90.0000000000004,90.0000000000004,300.0000000000013,190.00000000000085,160.0000000000007,110.00000000000048,100.00000000000044
-0.0,-100.00000000000044,-80.00000000000036,40.00000000000018,40.00000000000018,-80.00000000000036,100.00000000000044,310.00000000000136,200.00000000000088,160.0000000000007,110.00000000000048,100.00000000000044
-0.0,-90.0000000000004,-80.00000000000036,30.000000000000135,30.000000000000135,-80.00000000000036,110.00000000000048,310.00000000000136,210.00000000000094,160.0000000000007,110.00000000000048,90.0000000000004
-0.0,-80.00000000000036,-70.00000000000031,30.000000000000135,30.000000000000135,-70.00000000000031,110.00000000000048,300.0000000000013,210.00000000000094,150.00000000000065,100.00000000000044,80.00000000000036
-10.000000000000044,-70.00000000000031,-60.00000000000027,40.00000000000018,20.00000000000009,-70.00000000000031,120.00000000000054,280.00000000000125,200.00000000000088,140.00000000000063,90.0000000000004,80.00000000000036
-20.00000000000009,-80.00000000000036,-60.00000000000027,50.00000000000022,20.00000000000009,-70.00000000000031,120.00000000000054,270.0000000000012,200.00000000000088,140.00000000000063,90.0000000000004,70.00000000000031
-20.00000000000009,-90.0000000000004,-70.00000000000031,50.00000000000022,20.00000000000009,-80.00000000000036,110.00000000000048,270.0000000000012,190.00000000000085,140.00000000000063,80.00000000000036,60.00000000000027
-10.000000000000044,-90.0000000000004,-70.00000000000031,40.00000000000018,20.00000000000009,-70.00000000000031,110.00000000000048,250.0000000000011,190.00000000000085,140.00000000000063,80.00000000000036,60.00000000000027
-0.0,-80.00000000000036,-70.00000000000031,30.000000000000135,30.000000000000135,-70.00000000000031,100.00000000000044,230.00000000000102,180.0000000000008,140.00000000000063,70.00000000000031,60.00000000000027
-0.0,-70.00000000000031,-60.00000000000027,20.00000000000009,30.000000000000135,-60.00000000000027,90.0000000000004,210.00000000000094,170.00000000000077,130.00000000000057,70.00000000000031,50.00000000000022
-0.0,-60.00000000000027,-60.00000000000027,10.000000000000044,30.000000000000135,-50.00000000000022,80.00000000000036,200.00000000000088,160.0000000000007,120.00000000000054,70.00000000000031,50.00000000000022
-0.0,-50.00000000000022,-50.00000000000022,10.000000000000044,20.00000000000009,-40.00000000000018,70.00000000000031,180.0000000000008,150.00000000000065,120.00000000000054,60.00000000000027,40.00000000000018
-0.0,-40.00000000000018,-40.00000000000018,10.000000000000044,10.000000000000044,-40.00000000000018,60.00000000000027,160.0000000000007,140.00000000000063,110.00000000000048,60.00000000000027,30.000000000000135
-0.0,-40.00000000000018,-40.00000000000018,20.00000000000009,10.000000000000044,-40.00000000000018,50.00000000000022,140.00000000000063,130.00000000000057,110.00000000000048,60.00000000000027,30.000000000000135
-0.0,-40.00000000000018,-40.00000000000018,10.000000000000044,10.000000000000044,-40.00000000000018,50.00000000000022,130.00000000000057,130.00000000000057,110.00000000000048,60.00000000000027,30.000000000000135
-0.0,-40.00000000000018,-40.00000000000018,10.000000000000044,20.00000000000009,-30.000000000000135,50.00000000000022,120.00000000000054,120.00000000000054,110.00000000000048,60.00000000000027,30.000000000000135
10.000000000000044,-30.000000000000135,-40.00000000000018,-0.0,30.000000000000135,-40.00000000000018,50.00000000000022,110.00000000000048,110.00000000000048,100.00000000000044,60.00000000000027,30.000000000000135
20.00000000000009,-30.000000000000135,-50.00000000000022,-0.0,30.000000000000135,-30.000000000000135,40.00000000000018,100.00000000000044,100.00000000000044,100.00000000000044,50.00000000000022,20.00000000000009
30.000000000000135,-20.00000000000009,-40.00000000000018,-10.000000000000044,40.00000000000018,-20.00000000000009,30.000000000000135,80.00000000000036,100.00000000000044,80.00000000000036,40.00000000000018,20.00000000000009
40.00000000000018,-0.0,-40.00000000000018,-20.00000000000009,30.000000000000135,-10.000000000000044,20.00000000000009,70.00000000000031,90.0000000000004,70.00000000000031,30.000000000000135,10.000000000000044
30.000000000000135,-0.0,-20.00000000000009,-20.00000000000009,20.00000000000009,-0.0,10.000000000000044,50.00000000000022,90.0000000000004,70.00000000000031,30.000000000000135,10.000000000000044
20.00000000000009,-0.0,-20.00000000000009,-20.00000000000009,20.00000000000009,-0.0,10.000000000000044,50.00000000000022,80.00000000000036,70.00000000000031,30.000000000000135,10.000000000000044
20.00000000000009,10.000000000000044,-10.000000000000044,-10.000000000000044,10.000000000000044,-0.0,10.000000000000044,40.00000000000018,80.00000000000036,60.00000000000027,30.000000000000135,10.000000000000044
10.000000000000044,10.000000000000044,-0.0,-10.000000000000044,-0.0,-0.0,10.000000000000044,40.00000000000018,80.00000000000036,60.00000000000027,30.000000000000135,10.000000000000044
-0.0,10.000000000000044,-0.0,-10.000000000000044,-0.0,-0.0,10.000000000000044,30.000000000000135,70.00000000000031,50.00000000000022,30.000000000000135,10.000000000000044
-0.0,10.000000000000044,-0.0,-0.0,-0.0,-0.0,10.000000000000044,20.00000000000009,70.00000000000031,40.00000000000018,20.00000000000009,-0.0
-0.0,-0.0,-0.0,-0.0,-0.0,-0.0,10.000000000000044,10.000000000000044,60.00000000000027,30.000000000000135,10.000000000000044,-0.0
-0.0,10.000000000000044,20.00000000000009,-0.0,-10.000000000000044,10.000000000000044,-0.0,-0.0,60.00000000000027,30.000000000000135,10.000000000000044,-0.0
-0.0,10.000000000000044,20.00000000000009,-10.000000000000044,-10.000000000000044,20.00000000000009,-0.0,-0.0,60.00000000000027,20.00000000000009,-0.0,-0.0
-0.0,20.00000000000009,30.000000000000135,-20.00000000000009,-10.000000000000044,30.000000000000135,-0.0,-0.0,60.00000000000027,30.000000000000135,-0.0,-0.0
20.00000000000009,30.000000000000135,30.000000000000135,-40.00000000000018,-0.0,40.00000000000018,10.000000000000044,-0.0,60.00000000000027,30.000000000000135,10.000000000000044,-0.0
50.00000000000022,50.00000000000022,10.000000000000044,-70.00000000000031,-0.0,40.00000000000018,10.000000000000044,-0.0,60.00000000000027,30.000000000000135,10.000000000000044,-0.0
70.00000000000031,70.00000000000031,-0.0,-80.00000000000036,20.00000000000009,40.00000000000018,10.000000000000044,-0.0,60.00000000000027,30.000000000000135,10.000000000000044,-0.0
90.0000000000004,90.0000000000004,-0.0,-90.0000000000004,40.00000000000018,40.00000000000018,20.00000000000009,-0.0,60.00000000000027,40.00000000000018,10.000000000000044,-0.0
90.0000000000004,90.0000000000004,-0.0,-90.0000000000004,50.00000000000022,30.000000000000135,20.00000000000009,-0.0,70.00000000000031,40.00000000000018,10.000000000000044,-0.0
80.00000000000036,80.00000000000036,-0.0,-80.00000000000036,30.000000000000135,30.000000000000135,20.00000000000009,-0.0,70.00000000000031,40.00000000000018,-0.0,-0.0
60.00000000000027,80.00000000000036,-0.0,-70.00000000000031,20.00000000000009,30.000000000000135,10.000000000000044,-0.0,60.00000000000027,40.00000000000018,-0.0,-0.0
40.00000000000018,70.00000000000031,10.000000000000044,-50.00000000000022,10.000000000000044,30.000000000000135,-0.0,-0.0,60.00000000000027,30.000000000000135,-0.0,-0.0
30.000000000000135,60.00000000000027,20.00000000000009,-50.00000000000022,-0.0,40.00000000000018,-0.0,-0.0,60.00000000000027,40.00000000000018,-0.0,-0.0
20.00000000000009,60.00000000000027,30.000000000000135,-50.00000000000022,-0.0,50.00000000000022,-0.0,-0.0,60.00000000000027,40.00000000000018,-0.0,-0.0
20.00000000000009,60.00000000000027,50.00000000000022,-50.00000000000022,-10.000000000000044,60.00000000000027,-0.0,-0.0,60.00000000000027,40.00000000000018,-0.0,10.000000000000044
20.00000000000009,70.00000000000031,60.00000000000027,-50.00000000000022,-20.00000000000009,70.00000000000031,-0.0,-0.0,60.00000000000027,50.00000000000022,10.000000000000044,10.000000000000044
20.00000000000009,80.00000000000036,70.00000000000031,-60.00000000000027,-20.00000000000009,80.00000000000036,-0.0,10.000000000000044,60.00000000000027,60.00000000000027,20.00000000000009,10.000000000000044
10.000000000000044,90.0000000000004,80.00000000000036,-60.00000000000027,-20.00000000000009,90.0000000000004,-0.0,20.00000000000009,70.00000000000031,60.00000000000027,20.00000000000009,10.000000000000044
10.000000000000044,100.00000000000044,70.00000000000031,-50.00000000000022,-30.000000000000135,80.00000000000036,-0.0,30.000000000000135,70.00000000000031,70.00000000000031,20.00000000000009,-0.0
10.000000000000044,90.0000000000004,60.00000000000027,-50.00000000000022,-20.00000000000009,70.00000000000031,10.000000000000044,40.00000000000018,70.00000000000031,70.00000000000031,20.00000000000009,-0.0
-0.0,80.00000000000036,60.00000000000027,-40.00000000000018,-20.00000000000009,70.00000000000031,-0.0,40.00000000000018,70.00000000000031,70.00000000000031,20.00000000000009,-0.0
-0.0,70.00000000000031,60.00000000000027,-40.00000000000018,-20.00000000000009,60.00000000000027,10.000000000000044,50.00000000000022,80.00000000000036,70.00000000000031,20.00000000000009,-0.0
-0.0,70.00000000000031,60.00000000000027,-40.00000000000018,-20.00000000000009,70.00000000000031,10.000000000000044,50.00000000000022,80.00000000000036,70.00000000000031,20.00000000000009,-0.0
-0.0,70.00000000000031,60.00000000000027,-40.00000000000018,-30.000000000000135,70.00000000000031,10.000000000000044,50.00000000000022,80.00000000000036,70.00000000000031,20.00000000000009,10.000000000000044
-0.0,70.00000000000031,70.00000000000031,-40.00000000000018,-30.000000000000135,70.00000000000031,10.000000000000044,50.00000000000022,80.00000000000036,70.00000000000031,30.000000000000135,20.00000000000009
-0.0,80.00000000000036,60.00000000000027,-40.00000000000018,-30.000000000000135,70.00000000000031,10.000000000000044,60.00000000000027,70.00000000000031,60.00000000000027,30.000000000000135,20.00000000000009
-0.0,70.00000000000031,60.00000000000027,-30.000000000000135,-20.00000000000009,60.00000000000027,10.000000000000044,50.00000000000022,70.00000000000031,60.00000000000027,30.000000000000135,30.000000000000135
-0.0,60.00000000000027,40.00000000000018,-30.000000000000135,-20.00000000000009,50.00000000000022,-0.0,50.00000000000022,60.00000000000027,60.00000000000027,30.000000000000135,30.000000000000135
10.000000000000044,50.00000000000022,30.000000000000135,-30.000000000000135,-10.000000000000044,40.00000000000018,-0.0,50.00000000000022,60.00000000000027,70.00000000000031,30.000000000000135,30.000000000000135
20.00000000000009,50.00000000000022,20.00000000000009,-30.000000000000135,-0.0,30.000000000000135,-0.0,60.00000000000027,60.00000000000027,70.00000000000031,40.00000000000018,20.00000000000009
20.00000000000009,40.00000000000018,10.000000000000044,-30.000000000000135,-0.0,20.00000000000009,-0.0,60.00000000000027,60.00000000000027,70.00000000000031,40.00000000000018,20.00000000000009
30.000000000000135,40.00000000000018,-0.0,-30.000000000000135,-0.0,20.00000000000009,-0.0,60.00000000000027,60.00000000000027,70.00000000000031,40.00000000000018,20.00000000000009
20.00000000000009,30.000000000000135,-0.0,-30.000000000000135,-0.0,20.00000000000009,-0.0,60.00000000000027,60.00000000000027,60.00000000000027,40.00000000000018,20.00000000000009
-0.0,30.000000000000135,10.000000000000044,-10.000000000000044,-0.0,20.00000000000009,-0.0,50.00000000000022,50.00000000000022,60.00000000000027,40.00000000000018,20.00000000000009
-10.000000000000044,20.00000000000009,20.00000000000009,-0.0,-20.00000000000009,20.00000000000009,-0.0,50.00000000000022,50.00000000000022,50.00000000000022,40.00000000000018,20.00000000000009
-20.00000000000009,10.000000000000044,30.000000000000135,-0.0,-20.00000000000009,10.000000000000044,-0.0,50.00000000000022,40.00000000000018,40.00000000000018,30.000000000000135,20.00000000000009
-20.00000000000009,-0.0,30.000000000000135,10.000000000000044,-30.000000000000135,10.000000000000044,-0.0,40.00000000000018,40.00000000000018,40.00000000000018,30.000000000000135,10.000000000000044
-20.00000000000009,-0.0,20.00000000000009,10.000000000000044,-20.00000000000009,10.000000000000044,-0.0,30.000000000000135,30.000000000000135,40.00000000000018,20.00000000000009,10.000000000000044
-10.000000000000044,-0.0,10.000000000000044,-0.0,-10.000000000000044,-0.0,-10.000000000000044,30.000000000000135,30.000000000000135,40.00000000000018,20.00000000000009,10.000000000000044
-0.0,-0.0,-0.0,-0.0,-0.0,-0.0,-10.000000000000044,30.000000000000135,30.000000000000135,40.00000000000018,20.00000000000009,-0.0
-0.0,-0.0,-0.0,-0.0,-0.0,-0.0,-0.0,30.000000000000135,40.00000000000018,50.00000000000022,20.00000000000009,-0.0
10.000000000000044,-0.0,-10.000000000000044,-0.0,-0.0,-0.0,-0.0,40.00000000000018,50.00000000000022,60.00000000000027,20.00000000000009,10.000000000000044
10.000000000000044,-0.0,-10.000000000000044,-0.0,-0.0,-0.0,-0.0,50.00000000000022,50.00000000000022,60.00000000000027,30.000000000000135,10.000000000000044
-0.0,-0.0,-0.0,-0.0,-0.0,-0.0,-0.0,50.00000000000022,50.00000000000022,60.00000000000027,30.000000000000135,20.00000000000009
-0.0,-0.0,-0.0,-0.0,-0.0,-0.0,-0.0,50.00000000000022,50.00000000000022,60.00000000000027,30.000000000000135,20.00000000000009
-0.0,-0.0,-0.0,-0.0,-0.0,-0.0,-0.0,40.00000000000018,40.00000000000018,50.00000000000022,30.000000000000135,20.00000000000009
-0.0,-0.0,10.000000000000044,-0.0,-10.000000000000044,-0.0,-0.0,30.000000000000135,30.000000000000135,40.00000000000018,30.000000000000135,20.00000000000009
-0.0,-0.0,10.000000000000044,-0.0,-0.0,-0.0,-10.000000000000044,10.000000000000044,20.00000000000009,30.000000000000135,20.00000000000009,10.000000000000044
-0.0,-0.0,10.000000000000044,-0.0,-0.0,10.000000000000044,-10.000000000000044,-0.0,20.00000000000009,20.00000000000009,20.00000000000009,10.000000000000044
-0.0,10.000000000000044,10.000000000000044,-0.0,-0.0,10.000000000000044,-10.000000000000044,-0.0,10.000000000000044,10.000000000000044,10.000000000000044,10.000000000000044
-0.0,10.000000000000044,10.000000000000044,-0.0,-0.0,10.000000000000044,-20.00000000000009,-0.0,10.000000000000044,10.000000000000044,10.000000000000044,-0.0
-10.000000000000044,10.000000000000044,10.000000000000044,-0.0,-10.000000000000044,-0.0,-20.00000000000009,-0.0,10.000000000000044,-0.0,10.000000000000044,-0.0
-20.00000000000009,-0.0,10.000000000000044,-0.0,-20.00000000000009,-0.0,-20.00000000000009,10.000000000000044,10.000000000000044,-0.0,-0.0,-0.0
-40.00000000000018,-0.0,20.00000000000009,20.00000000000009,-30.000000000000135,-0.0,-10.000000000000044,10.000000000000044,10.000000000000044,-0.0,-0.0,-0.0
-50.00000000000022,-10.000000000000044,30.000000000000135,30.000000000000135,-40.00000000000018,-0.0,-10.000000000000044,10.000000000000044,20.00000000000009,-0.0,-0.0,-0.0
-50.00000000000022,-10.000000000000044,30.000000000000135,20.00000000000009,-40.00000000000018,-0.0,-0.0,10.000000000000044,20.00000000000009,-0.0,-0.0,-0.0
-40.00000000000018,-10.000000000000044,20.00000000000009,20.00000000000009,-30.000000000000135,-0.0,-0.0,10.000000000000044,20.00000000000009,-0.0,-0.0,-0.0
-30.000000000000135,-10.000000000000044,10.000000000000044,10.000000000000044,-20.00000000000009,-0.0,-0.0,10.000000000000044,10.000000000000044,-0.0,-0.0,-0.0
-20.00000000000009,-0.0,-0.0,10.000000000000044,-10.000000000000044,-0.0,-0.0,10.000000000000044,10.000000000000044,-0.0,-0.0,-0.0
-10.000000000000044,-10.000000000000044,-0.0,10.000000000000044,-0.0,-10.000000000000044,-0.0,-0.0,-0.0,-0.0,-0.0,-10.000000000000044
-0.0,-10.000000000000044,-10.000000000000044,10.000000000000044,-0.0,-10.000000000000044,-10.000000000000044,-0.0,-0.0,-0.0,-0.0,-10.000000000000044
-0.0,-20.00000000000009,-10.000000000000044,10.000000000000044,-0.0,-10.000000000000044,-10.000000000000044,-0.0,10.000000000000044,-0.0,-0.0,-10.000000000000044
-0.0,-20.00000000000009,-10.000000000000044,-0.0,-0.0,-10.000000000000044,-10.000000000000044,-0.0,10.000000000000044,-0.0,-0.0,-10.000000000000044
-0.0,-10.000000000000044,-0.0,-0.0,-0.0,-0.0,-0.0,-0.0,10.000000000000044,-0.0,-0.0,-0.0
-0.0,-0.0,-0.0,-0.0,-0.0,-0.0,-0.0,-0.0,10.000000000000044,-0.0,-0.0,-0.0
-0.0,-0.0,-0.0,-0.0,-0.0,-0.0,-0.0,-0.0,-0.0,-0.0,-0.0,-0.0
-0.0,-0.0,-0.0,-0.0,-0.0,-0.0,-10.000000000000044,-0.0,-0.0,-0.0,-0.0,-0.0
-10.000000000000044,-0.0,-0.0,-0.0,-0.0,-0.0,-10.000000000000044,-0.0,-0.0,-0.0,-0.0,-0.0
-10.000000000000044,-0.0,-0.0,-0.0,-0.0,-0.0,-10.000000000000044,-0.0,-0.0,-0.0,-0.0,-0.0
-10.000000000000044,-0.0,-0.0,10.000000000000044,-0.0,-0.0,-10.000000000000044,-0.0,-0.0,-0.0,-0.0,-0.0
-0.0,-10.000000000000044,-0.0,-0.0,-0.0,-0.0,-10.000000000000044,-0.0,-0.0,-0.0,-0.0,-10.000000000000044
-0.0,-10.000000000000044,-0.0,-0.0,-0.0,-0.0,-10.000000000000044,-0.0,-0.0,-0.0,-10.000000000000044,-10.000000000000044
-0.0,-10.000000000000044,-0.0,-0.0,-0.0,-0.0,-10.000000000000044,-0.0,-0.0,-0.0,-20.00000000000009,-20.00000000000009
-0.0,-0.0,-0.0,-0.0,-0.0,-0.0,-20.00000000000009,-0.0,-0.0,-0.0,-20.00000000000009,-20.00000000000009
-0.0,-0.0,-0.0,-0.0,-0.0,-0.0,-10.000000000000044,-0.0,-0.0,-0.0,-20.00000000000009,-20.00000000000009
-10.000000000000044,-0.0,-0.0,-0.0,-0.0,-0.0,-10.000000000000044,-0.0,-0.0,-10.000000000000044,-20.00000000000009,-20.00000000000009
-10.000000000000044,-10.000000000000044,-0.0,10.000000000000044,-0.0,-10.000000000000044,-0.0,-0.0,-0.0,-10.000000000000044,-20.00000000000009,-20.00000000000009
-20.00000000000009,-20.00000000000009,-0.0,20.00000000000009,-0.0,-10.000000000000044,-0.0,-0.0,-0.0,-10.000000000000044,-10.000000000000044,-10.000000000000044
-20.00000000000009,-20.00000000000009,-0.0,20.00000000000009,-0.0,-10.000000000000044,-0.0,-0.0,-0.0,-10.000000000000044,-10.000000000000044,-10.000000000000044
-10.000000000000044,-20.00000000000009,-0.0,10.000000000000044,-0.0,-10.000000000000044,-0.0,-10.000000000000044,-0.0,-10.000000000000044,-10.000000000000044,-0.0
-0.0,-20.00000000000009,-0.0,-0.0,-0.0,-0.0,-0.0,-10.000000000000044,-0.0,-0.0,-10.000000000000044,-0.0
-0.0,-10.000000000000044,-0.0,-0.0,-0.0,-0.0,-0.0,-0.0,10.000000000000044,-0.0,-0.0,-0.0
10.000000000000044,-0.0,-10.000000000000044,-10.000000000000044,10.000000000000044,-0.0,-0.0,-0.0,10.000000000000044,-0.0,-0.0,-0.0
20.00000000000009,-0.0,-10.000000000000044,-10.000000000000044,10.000000000000044,-0.0,-0.0,-0.0,20.00000000000009,-0.0,-0.0,-0.0
10.000000000000044,-0.0,-20.00000000000009,-0.0,10.000000000000044,-10.000000000000044,10.000000000000044,-0.0,20.00000000000009,-0.0,-0.0,-0.0
-0.0,-0.0,-20.00000000000009,-0.0,-0.0,-20.00000000000009,20.00000000000009,-0.0,20.00000000000009,-0.0,-0.0,-0.0
-10.000000000000044,-20.00000000000009,-10.000000000000044,10.000000000000044,-0.0,-20.00000000000009,20.00000000000009,-0.0,20.00000000000009,-0.0,-0.0,-0.0
-20.00000000000009,-30.000000000000135,-10.000000000000044,30.000000000000135,-0.0,-20.00000000000009,20.00000000000009,-0.0,30.000000000000135,-0.0,-0.0,-0.0
-20.00000000000009,-40.00000000000018,-10.000000000000044,30.000000000000135,-0.0,-20.00000000000009,20.00000000000009,-0.0,30.000000000000135,10.000000000000044,-0.0,-0.0
-10.000000000000044,-30.000000000000135,-20.00000000000009,20.00000000000009,-0.0,-20.00000000000009,20.00000000000009,-0.0,30.000000000000135,10.000000000000044,-0.0,-0.0
-0.0,-30.000000000000135,-20.00000000000009,-0.0,-0.0,-20.00000000000009,10.000000000000044,-0.0,40.00000000000018,20.00000000000009,-0.0,-0.0
-0.0,-20.00000000000009,-30.000000000000135,-0.0,10.000000000000044,-20.00000000000009,-0.0,-0.0,30.000000000000135,10.000000000000044,10.000000000000044,10.000000000000044
10.000000000000044,-20.00000000000009,-30.000000000000135,-0.0,20.00000000000009,-20.00000000000009,-0.0,-10.000000000000044,20.00000000000009,10.000000000000044,10.000000000000044,10.000000000000044
-0.0,-20.00000000000009,-20.00000000000009,-0.0,10.000000000000044,-20.00000000000009,-10.000000000000044,-20.00000000000009,10.000000000000044,-0.0,20.00000000000009,20.00000000000009
-0.0,-20.00000000000009,-20.00000000000009,10.000000000000044,-0.0,-20.00000000000009,-20.00000000000009,-30.000000000000135,-0.0,-0.0,20.00000000000009,20.00000000000009
-10.000000000000044,-20.00000000000009,-10.000000000000044,10.000000000000044,-0.0,-20.00000000000009,-30.000000000000135,-40.00000000000018,-0.0,-0.0,20.00000000000009,20.00000000000009
-10.000000000000044,-20.00000000000009,-10.000000000000044,20.00000000000009,-0.0,-20.00000000000009,-40.00000000000018,-40.00000000000018,-0.0,-0.0,20.00000000000009,30.000000000000135
-10.000000000000044,-30.000000000000135,-10.000000000000044,20.00000000000009,-0.0,-20.00000000000009,-40.00000000000018,-40.00000000000018,-0.0,-0.0,20.00000000000009,40.00000000000018
-10.000000000000044,-30.000000000000135,-10.000000000000044,20.00000000000009,-0.0,-20.00000000000009,-50.00000000000022,-40.00000000000018,-0.0,-0.0,30.000000000000135,40.00000000000018
-10.000000000000044,-30.000000000000135,-10.000000000000044,20.00000000000009,-0.0,-20.00000000000009,-50.00000000000022,-40.00000000000018,-20.00000000000009,-0.0,20.00000000000009,40.00000000000018
-10.000000000000044,-30.000000000000135,-10.000000000000044,20.00000000000009,-0.0,-20.00000000000009,-50.00000000000022,-50.00000000000022,-30.000000000000135,-10.000000000000044,10.000000000000044,20.00000000000009
-10.000000000000044,-30.000000000000135,-10.000000000000044,20.00000000000009,-0.0,-20.00000000000009,-60.00000000000027,-60.00000000000027,-40.00000000000018,-30.000000000000135,-0.0,10.000000000000044
-10.000000000000044,-30.000000000000135,-10.000000000000044,10.000000000000044,-0.0,-10.000000000000044,-60.00000000000027,-70.00000000000031,-50.00000000000022,-40.00000000000018,-0.0,-0.0
-0.0,-20.00000000000009,-10.000000000000044,-0.0,-0.0,-10.000000000000044,-60.00000000000027,-80.00000000000036,-60.00000000000027,-50.00000000000022,-10.000000000000044,-10.000000000000044
-0.0,-10.000000000000044,-20.00000000000009,-0.0,10.000000000000044,-10.000000000000044,-60.00000000000027,-80.00000000000036,-60.00000000000027,-60.00000000000027,-10.000000000000044,-10.000000000000044
10.000000000000044,-10.000000000000044,-20.00000000000009,-0.0,10.000000000000044,-10.000000000000044,-60.00000000000027,-80.00000000000036,-60.00000000000027,-60.00000000000027,-0.0,-10.000000000000044
-0.0,-10.000000000000044,-20.00000000000009,-0.0,10.000000000000044,-10.000000000000044,-60.00000000000027,-80.00000000000036,-60.00000000000027,-60.00000000000027,-0.0,-20.00000000000009
-0.0,-10.000000000000044,-10.000000000000044,-0.0,-0.0,-10.000000000000044,-50.00000000000022,-80.00000000000036,-70.00000000000031,-70.00000000000031,-10.000000000000044,-20.00000000000009
-0.0,-10.000000000000044,-0.0,-0.0,-0.0,-0.0,-50.00000000000022,-80.00000000000036,-70.00000000000031,-70.00000000000031,-10.000000000000044,-20.00000000000009
-10.000000000000044,-10.000000000000044,-0.0,-0.0,-10.000000000000044,-0.0,-50.00000000000022,-80.00000000000036,-80.00000000000036,-80.00000000000036,-10.000000000000044,-30.000000000000135
-0.0,-0.0,20.00000000000009,-0.0,-10.000000000000044,10.000000000000044,-60.00000000000027,-80.00000000000036,-80.00000000000036,-90.0000000000004,-20.00000000000009,-30.000000000000135
-0.0,10.000000000000044,30.000000000000135,-10.000000000000044,-10.000000000000044,20.00000000000009,-60.00000000000027,-90.0000000000004,-80.00000000000036,-90.0000000000004,-20.00000000000009,-40.00000000000018
-0.0,20.00000000000009,30.000000000000135,-20.00000000000009,-10.000000000000044,30.000000000000135,-70.00000000000031,-100.00000000000044,-80.00000000000036,-90.0000000000004,-20.00000000000009,-40.00000000000018
-0.0,30.000000000000135,40.00000000000018,-20.00000000000009,-10.000000000000044,40.00000000000018,-70.00000000000031,-100.00000000000044,-80.00000000000036,-80.00000000000036,-20.00000000000009,-30.000000000000135
-0.0,40.00000000000018,40.00000000000018,-20.00000000000009,-20.00000000000009,50.00000000000022,-60.00000000000027,-100.00000000000044,-70.00000000000031,-80.00000000000036,-10.000000000000044,-30.000000000000135
-0.0,50.00000000000022,50.00000000000022,-30.000000000000135,-30.000000000000135,50.00000000000022,-30.000000000000135,-80.00000000000036,-40.00000000000018,-70.00000000000031,-10.000000000000044,-20.00000000000009
-0.0,60.00000000000027,60.00000000000027,-30.000000000000135,-30.000000000000135,60.00000000000027,-10.000000000000044,-40.00000000000018,-10.000000000000044,-40.00000000000018,-10.000000000000044,-30.000000000000135
-0.0,60.00000000000027,70.00000000000031,-40.00000000000018,-30.000000000000135,70.00000000000031,10.000000000000044,10.000000000000044,40.00000000000018,20.00000000000009,-10.000000000000044,-30.000000000000135
-0.0,70.00000000000031,70.00000000000031,-40.00000000000018,-30.000000000000135,80.00000000000036,30.000000000000135,60.00000000000027,120.00000000000054,110.00000000000048,10.000000000000044,-20.00000000000009
10.000000000000044,80.00000000000036,70.00000000000031,-50.00000000000022,-30.000000000000135,80.00000000000036,20.00000000000009,120.00000000000054,220.00000000000097,240.00000000000108,70.00000000000031,20.00000000000009
20.00000000000009,90.0000000000004,70.00000000000031,-60.00000000000027,-20.00000000000009,80.00000000000036,-0.0,160.0000000000007,320.0000000000014,410.0000000000018,190.00000000000085,110.00000000000048
20.00000000000009,90.0000000000004,70.00000000000031,-60.00000000000027,-20.00000000000009,80.00000000000036,-40.00000000000018,140.00000000000063,410.0000000000018,590.0000000000026,370.00000000000165,260.00000000000114
20.00000000000009,100.00000000000044,80.00000000000036,-60.00000000000027,-20.00000000000009,90.0000000000004,-110.00000000000048,40.00000000000018,470.0000000000021,730.0000000000033,600.0000000000026,460.00000000000205
20.00000000000009,100.00000000000044,80.00000000000036,-60.00000000000027,-30.000000000000135,100.00000000000044,-190.00000000000085,-140.00000000000063,440.00000000000193,790.0000000000035,830.0000000000036,670.000000000003
20.00000000000009,110.00000000000048,90.0000000000004,-70.00000000000031,-30.000000000000135,100.00000000000044,-280.00000000000125,-410.0000000000018,320.0000000000014,700.0000000000031,990.0000000000044,840.0000000000038
20.00000000000009,110.00000000000048,90.0000000000004,-70.00000000000031,-30.000000000000135,100.00000000000044,-370.00000000000165,-730.0000000000033,120.00000000000054,490.00000000000216,1050.0000000000048,930.0000000000041
30.000000000000135,110.00000000000048,70.00000000000031,-70.00000000000031,-20.00000000000009,90.0000000000004,-440.00000000000193,-1050.0000000000048,-140.00000000000063,180.0000000000008,950.0000000000042,880.0000000000039
40.00000000000018,110.00000000000048,50.00000000000022,-70.00000000000031,-0.0,80.00000000000036,-480.00000000000216,-1330.000000000006,-410.0000000000018,-160.0000000000007,730.0000000000033,720.0000000000032
50.00000000000022,100.00000000000044,30.000000000000135,-70.00000000000031,-0.0,60.00000000000027,-510.0000000000023,-1520.0000000000068,-650.0000000000028,-480.00000000000216,430.00000000000193,490.00000000000216
50.00000000000022,80.00000000000036,10.000000000000044,-60.00000000000027,10.000000000000044,40.00000000000018,-510.0000000000023,-1610.000000000007,-810.0000000000036,-710.0000000000032,120.00000000000054,240.00000000000108
40.00000000000018,70.00000000000031,-0.0,-50.00000000000022,20.00000000000009,20.00000000000009,-490.00000000000216,-1570.000000000007,-870.0000000000039,-800.0000000000035,-120.00000000000054,20.00000000000009
30.000000000000135,50.00000000000022,-0.0,-30.000000000000135,10.000000000000044,10.000000000000044,-460.00000000000205,-1440.0000000000064,-820.0000000000036,-760.0000000000034,-260.00000000000114,-120.00000000000054
-0.0,20.00000000000009,-0.0,-10.000000000000044,-0.0,-0.0,-420.0000000000019,-1250.0000000000055,-710.0000000000032,-650.0000000000028,-310.00000000000136,-200.00000000000088
-10.000000000000044,-0.0,-0.0,-0.0,-0.0,-0.0,-370.00000000000165,-1020.0000000000045,-580.0000000000026,-520.0000000000023,-280.00000000000125,-200.00000000000088
-20.00000000000009,-10.000000000000044,-0.0,20.00000000000009,-10.000000000000044,-10.000000000000044,-310.00000000000136,-800.0000000000035,-440.00000000000193,-390.0000000000017,-210.00000000000094,-170.00000000000077
-30.000000000000135,-30.000000000000135,-10.000000000000044,30.000000000000135,-10.000000000000044,-30.000000000000135,-240.00000000000108,-610.0000000000027,-330.0000000000015,-280.00000000000125,-150.00000000000065,-130.00000000000057
-30.000000000000135,-50.00000000000022,-10.000000000000044,40.00000000000018,-10.000000000000044,-30.000000000000135,-180.0000000000008,-450.000000000002,-250.0000000000011,-210.00000000000094,-100.00000000000044,-90.0000000000004
-30.000000000000135,-50.00000000000022,-30.000000000000135,40.00000000000018,-0.0,-40.00000000000018,-120.00000000000054,-340.00000000000153,-200.00000000000088,-170.00000000000077,-70.00000000000031,-70.00000000000031
-20.00000000000009,-60.00000000000027,-40.00000000000018,30.000000000000135,-0.0,-50.00000000000022,-70.00000000000031,-260.00000000000114,-160.0000000000007,-150.00000000000065,-50.00000000000022,-60.00000000000027
-0.0,-60.00000000000027,-60.00000000000027,30.000000000000135,20.00000000000009,-60.00000000000027,-50.00000000000022,-200.00000000000088,-140.00000000000063,-130.00000000000057,-40.00000000000018,-50.00000000000022
-0.0,-60.00000000000027,-70.00000000000031,20.00000000000009,30.000000000000135,-70.00000000000031,-30.000000000000135,-160.0000000000007,-130.00000000000057,-120.00000000000054,-30.000000000000135,-50.00000000000022
-0.0,-60.00000000000027,-70.00000000000031,20.00000000000009,40.00000000000018,-70.00000000000031,-30.000000000000135,-130.00000000000057,-120.00000000000054,-100.00000000000044,-30.000000000000135,-50.00000000000022
-0.0,-60.00000000000027,-80.00000000000036,20.00000000000009,40.00000000000018,-70.00000000000031,-20.00000000000009,-110.00000000000048,-100.00000000000044,-90.0000000000004,-20.00000000000009,-50.00000000000022
-0.0,-70.00000000000031,-80.00000000000036,40.00000000000018,30.000000000000135,-80.00000000000036,-20.00000000000009,-90.0000000000004,-90.0000000000004,-80.00000000000036,-20.00000000000009,-50.00000000000022
-10.000000000000044,-90.0000000000004,-90.0000000000004,50.00000000000022,30.000000000000135,-100.00000000000044,-10.000000000000044,-70.00000000000031,-90.0000000000004,-70.00000000000031,-20.00000000000009,-40.00000000000018
-10.000000000000044,-110.00000000000048,-110.00000000000048,60.00000000000027,40.00000000000018,-120.00000000000054,-10.000000000000044,-50.00000000000022,-80.00000000000036,-60.00000000000027,-10.000000000000044,-40.00000000000018
-10.000000000000044,-120.00000000000054,-120.00000000000054,70.00000000000031,50.00000000000022,-130.00000000000057,-10.000000000000044,-40.00000000000018,-70.00000000000031,-60.00000000000027,-10.000000000000044,-30.000000000000135
-0.0,-130.00000000000057,-110.00000000000048,40.00000000000018,60.00000000000027,-110.00000000000048,-10.000000000000044,-30.000000000000135,-70.00000000000031,-60.00000000000027,-10.000000000000044,-30.000000000000135
20.00000000000009,-110.00000000000048,-70.00000000000031,-0.0,40.00000000000018,-50.00000000000022,-20.00000000000009,-30.000000000000135,-70.00000000000031,-60.00000000000027,-10.000000000000044,-30.000000000000135
60.00000000000027,-40.00000000000018,20.00000000000009,-80.00000000000036,20.00000000000009,50.00000000000022,-20.00000000000009,-20.00000000000009,-70.00000000000031,-60.00000000000027,-10.000000000000044,-30.000000000000135
100.00000000000044,80.00000000000036,160.0000000000007,-190.00000000000085,-30.000000000000135,210.00000000000094,-30.000000000000135,-20.00000000000009,-70.00000000000031,-60.00000000000027,-10.000000000000044,-40.00000000000018
130.00000000000057,260.00000000000114,340.00000000000153,-310.00000000000136,-110.00000000000048,410.0000000000018,-30.000000000000135,-10.000000000000044,-70.00000000000031,-60.00000000000027,-10.000000000000044,-40.00000000000018
150.00000000000065,470.0000000000021,530.0000000000024,-410.0000000000018,-190.00000000000085,600.0000000000026,-40.00000000000018,-10.000000000000044,-70.00000000000031,-50.00000000000022,-10.000000000000044,-30.000000000000135
130.00000000000057,680.0000000000031,690.0000000000031,-480.00000000000216,-280.00000000000125,750.0000000000033,-40.00000000000018,-10.000000000000044,-60.00000000000027,-40.00000000000018,-10.000000000000044,-20.00000000000009
80.00000000000036,820.0000000000036,780.0000000000034,-480.00000000000216,-350.00000000000153,830.0000000000036,-40.00000000000018,-0.0,-50.00000000000022,-30.000000000000135,-0.0,-10.000000000000044
10.000000000000044,870.0000000000039,800.0000000000035,-410.0000000000018,-390.0000000000017,800.0000000000035,-30.000000000000135,-0.0,-40.00000000000018,-20.00000000000009,-0.0,-0.0
-70.00000000000031,810.0000000000036,740.0000000000033,-300.0000000000013,-410.0000000000018,710.0000000000032,-20.00000000000009,-0.0,-30.000000000000135,-10.000000000000044,-0.0,-0.0
-160.0000000000007,670.000000000003,640.0000000000028,-170.00000000000077,-400.00000000000176,570.0000000000025,-20.00000000000009,20.00000000000009,-20.00000000000009,-0.0,10.000000000000044,-0.0
-220.00000000000097,490.00000000000216,530.0000000000024,-50.00000000000022,-370.00000000000165,420.0000000000019,-20.00000000000009,30.000000000000135,-10.000000000000044,-0.0,10.000000000000044,-0.0
-260.00000000000114,310.00000000000136,420.0000000000019,40.00000000000018,-340.00000000000153,290.0000000000013,-20.00000000000009,30.000000000000135,-10.000000000000044,-0.0,10.000000000000044,-0.0
-270.0000000000012,160.0000000000007,340.00000000000153,90.0000000000004,-300.0000000000013,200.00000000000088,-20.00000000000009,40.00000000000018,-10.000000000000044,-0.0,-0.0,-0.0
-250.0000000000011,70.00000000000031,270.0000000000012,110.00000000000048,-260.00000000000114,140.00000000000063,-30.000000000000135,30.000000000000135,-10.000000000000044,-0.0,-0.0,-10.000000000000044
-210.00000000000094,20.00000000000009,220.00000000000097,100.00000000000044,-220.00000000000097,110.00000000000048,-40.00000000000018,40.00000000000018,-10.000000000000044,-0.0,-0.0,-10.000000000000044
-180.0000000000008,-0.0,170.00000000000077,80.00000000000036,-170.00000000000077,70.00000000000031,-40.00000000000018,40.00000000000018,-0.0,-0.0,-0.0,-0.0
-140.00000000000063,-0.0,110.00000000000048,70.00000000000031,-120.00000000000054,40.00000000000018,-40.00000000000018,40.00000000000018,-0.0,-0.0,-0.0,-0.0
-100.00000000000044,-10.000000000000044,60.00000000000027,60.00000000000027,-80.00000000000036,10.000000000000044,-30.000000000000135,50.00000000000022,-0.0,10.000000000000044,-0.0,-0.0
-80.00000000000036,-20.00000000000009,30.000000000000135,50.00000000000022,-50.00000000000022,-0.0,-30.000000000000135,60.00000000000027,10.000000000000044,20.00000000000009,10.000000000000044,-0.0
-60.00000000000027,-40.00000000000018,-0.0,50.00000000000022,-30.000000000000135,-20.00000000000009,-30.000000000000135,80.00000000000036,20.00000000000009,30.000000000000135,20.00000000000009,10.000000000000044
-40.00000000000018,-50.00000000000022,-10.000000000000044,50.00000000000022,-10.000000000000044,-30.000000000000135,-30.000000000000135,90.0000000000004,40.00000000000018,30.000000000000135,30.000000000000135,20.00000000000009
-30.000000000000135,-60.00000000000027,-20.00000000000009,40.00000000000018,-0.0,-40.00000000000018,-30.000000000000135,100.00000000000044,40.00000000000018,50.00000000000022,40.00000000000018,30.000000000000135
-30.000000000000135,-60.00000000000027,-30.000000000000135,40.00000000000018,-0.0,-40.00000000000018,-30.000000000000135,110.00000000000048,50.00000000000022,60.00000000000027,40.00000000000018,40.00000000000018
-20.00000000000009,-60.00000000000027,-40.00000000000018,30.000000000000135,-0.0,-50.00000000000022,-30.000000000000135,120.00000000000054,60.00000000000027,70.00000000000031,50.00000000000022,40.00000000000018
-10.000000000000044,-60.00000000000027,-50.00000000000022,30.000000000000135,10.000000000000044,-50.00000000000022,-20.00000000000009,140.00000000000063,80.00000000000036,90.0000000000004,60.00000000000027,50.00000000000022
-0.0,-60.00000000000027,-50.00000000000022,30.000000000000135,20.00000000000009,-50.00000000000022,-10.000000000000044,160.0000000000007,90.0000000000004,100.00000000000044,60.00000000000027,50.00000000000022
-0.0,-60.00000000000027,-50.00000000000022,30.000000000000135,20.00000000000009,-60.00000000000027,-0.0,170.00000000000077,100.00000000000044,110.00000000000048,70.00000000000031,60.00000000000027
-0.0,-60.00000000000027,-60.00000000000027,30.000000000000135,20.00000000000009,-60.00000000000027,-0.0,190.00000000000085,110.00000000000048,110.00000000000048,70.00000000000031,70.00000000000031
-10.000000000000044,-70.00000000000031,-60.00000000000027,40.00000000000018,20.00000000000009,-70.00000000000031,-0.0,200.00000000000088,120.00000000000054,120.00000000000054,70.00000000000031,70.00000000000031
-10.000000000000044,-70.00000000000031,-60.00000000000027,40.00000000000018,20.00000000000009,-70.00000000000031,-0.0,210.00000000000094,130.00000000000057,120.00000000000054,70.00000000000031,70.00000000000031
-10.000000000000044,-80.00000000000036,-70.00000000000031,50.00000000000022,20.00000000000009,-70.00000000000031,-0.0,220.00000000000097,130.00000000000057,130.00000000000057,70.00000000000031,80.00000000000036
-10.000000000000044,-80.00000000000036,-70.00000000000031,50.00000000000022,20.00000000000009,-70.00000000000031,-0.0,230.00000000000102,140.00000000000063,140.00000000000063,80.00000000000036,80.00000000000036
-10.000000000000044,-80.00000000000036,-70.00000000000031,50.00000000000022,20.00000000000009,-80.00000000000036,-0.0,240.00000000000108,150.00000000000065,140.00000000000063,80.00000000000036,90.0000000000004
-10.000000000000044,-90.0000000000004,-60.00000000000027,50.00000000000022,20.00000000000009,-70.00000000000031,-0.0,250.0000000000011,160.0000000000007,150.00000000000065,80.00000000000036,90.0000000000004
-10.000000000000044,-80.00000000000036,-60.00000000000027,40.00000000000018,10.000000000000044,-70.00000000000031,-0.0,260.00000000000114,170.00000000000077,150.00000000000065,80.00000000000036,90.0000000000004
-10.000000000000044,-80.00000000000036,-50.00000000000022,40.00000000000018,10.000000000000044,-60.00000000000027,10.000000000000044,270.0000000000012,170.00000000000077,150.00000000000065,90.0000000000004,90.0000000000004
-10.000000000000044,-70.00000000000031,-40.00000000000018,20.00000000000009,10.000000000000044,-50.00000000000022,20.00000000000009,270.0000000000012,180.0000000000008,150.00000000000065,80.00000000000036,80.00000000000036
-0.0,-50.00000000000022,-30.000000000000135,10.000000000000044,10.000000000000044,-30.000000000000135,20.00000000000009,270.0000000000012,180.0000000000008,150.00000000000065,80.00000000000036,80.00000000000036
-0.0,-30.000000000000135,-20.00000000000009,-0.0,10.000000000000044,-20.00000000000009,30.000000000000135,270.0000000000012,180.0000000000008,150.00000000000065,80.00000000000036,80.00000000000036
-0.0,-20.00000000000009,-10.000000000000044,-0.0,-0.0,-10.000000000000044,40.00000000000018,260.00000000000114,180.0000000000008,150.00000000000065,80.00000000000036,80.00000000000036
-0.0,-10.000000000000044,-0.0,-0.0,-0.0,-0.0,40.00000000000018,260.00000000000114,180.0000000000008,150.00000000000065,90.0000000000004,90.0000000000004
-0.0,-0.0,-10.000000000000044,-0.0,-0.0,-0.0,50.00000000000022,260.00000000000114,180.0000000000008,160.0000000000007,100.00000000000044,90.0000000000004
-0.0,-0.0,-10.000000000000044,-0.0,-0.0,-10.000000000000044,70.00000000000031,260.00000000000114,190.00000000000085,160.0000000000007,100.00000000000044,90.0000000000004
-0.0,-10.000000000000044,-10.000000000000044,-0.0,-0.0,-10.000000000000044,80.00000000000036,270.0000000000012,190.00000000000085,160.0000000000007,110.00000000000048,90.0000000000004
-0.0,-10.000000000000044,-10.000000000000044,-0.0,10.000000000000044,-10.000000000000044,90.0000000000004,280.00000000000125,190.00000000000085,160.0000000000007,100.00000000000044,80.00000000000036
10.000000000000044,-0.0,-10.000000000000044,-0.0,10.000000000000044,-10.000000000000044,100.00000000000044,270.0000000000012,190.00000000000085,150.00000000000065,100.00000000000044,80.00000000000036
10.000000000000044,-0.0,-10.000000000000044,-0.0,10.000000000000044,-0.0,100.00000000000044,250.0000000000011,180.0000000000008,140.00000000000063,90.0000000000004,70.00000000000031
-0.0,-0.0,-0.0,-0.0,-0.0,-0.0,110.00000000000048,230.00000000000102,160.0000000000007,130.00000000000057,80.00000000000036,60.00000000000027
-0.0,-0.0,-0.0,-0.0,-0.0,-0.0,100.00000000000044,210.00000000000094,150.00000000000065,120.00000000000054,80.00000000000036,60.00000000000027
-0.0,-0.0,-0.0,-0.0,-0.0,-0.0,100.00000000000044,200.00000000000088,140.00000000000063,120.00000000000054,70.00000000000031,50.00000000000022
10.000000000000044,-0.0,-0.0,-10.000000000000044,-0.0,-0.0,100.00000000000044,180.0000000000008,140.00000000000063,110.00000000000048,70.00000000000031,40.00000000000018
20.00000000000009,-0.0,-10.000000000000044,-10.000000000000044,10.000000000000044,-0.0,100.00000000000044,170.00000000000077,130.00000000000057,110.00000000000048,70.00000000000031,40.00000000000018
30.000000000000135,10.000000000000044,-10.000000000000044,-20.00000000000009,20.00000000000009,-0.0,100.00000000000044,160.0000000000007,120.00000000000054,110.00000000000048,70.00000000000031,40.00000000000018
30.000000000000135,10.000000000000044,-10.000000000000044,-20.00000000000009,20.00000000000009,-0.0,90.0000000000004,140.00000000000063,110.00000000000048,100.00000000000044,70.00000000000031,40.00000000000018
20.00000000000009,10.000000000000044,-10.000000000000044,-20.00000000000009,10.000000000000044,-0.0,80.00000000000036,130.00000000000057,100.00000000000044,100.00000000000044,70.00000000000031,40.00000000000018
10.000000000000044,10.000000000000044,-0.0,-20.00000000000009,-0.0,-0.0,70.00000000000031,110.00000000000048,80.00000000000036,90.0000000000004,60.00000000000027,40.00000000000018
10.000000000000044,20.00000000000009,-0.0,-20.00000000000009,-0.0,10.000000000000044,50.00000000000022,100.00000000000044,70.00000000000031,70.00000000000031,60.00000000000027,40.00000000000018
10.000000000000044,20.00000000000009,20.00000000000009,-30.000000000000135,-0.0,20.00000000000009,40.00000000000018,80.00000000000036,60.00000000000027,60.00000000000027,60.00000000000027,40.00000000000018
20.00000000000009,30.000000000000135,20.00000000000009,-50.00000000000022,-0.0,40.00000000000018,40.00000000000018,70.00000000000031,50.00000000000022,60.00000000000027,60.00000000000027,40.00000000000018
40.00000000000018,50.00000000000022,20.00000000000009,-70.00000000000031,-0.0,50.00000000000022,40.00000000000018,60.00000000000027,50.00000000000022,60.00000000000027,60.00000000000027,40.00000000000018
60.00000000000027,70.00000000000031,20.00000000000009,-80.00000000000036,10.000000000000044,60.00000000000027,50.00000000000022,50.00000000000022,40.00000000000018,60.00000000000027,60.00000000000027,50.00000000000022
70.00000000000031,90.0000000000004,20.00000000000009,-80.00000000000036,10.000000000000044,60.00000000000027,60.00000000000027,50.00000000000022,30.000000000000135,50.00000000000022,60.00000000000027,50.00000000000022
50.00000000000022,100.00000000000044,30.000000000000135,-80.00000000000036,-0.0,70.00000000000031,60.00000000000027,40.00000000000018,20.00000000000009,40.00000000000018,50.00000000000022,50.00000000000022
30.000000000000135,100.00000000000044,50.00000000000022,-70.00000000000031,-10.000000000000044,80.00000000000036,60.00000000000027,30.000000000000135,10.000000000000044,30.000000000000135,40.00000000000018,40.00000000000018
20.00000000000009,100.00000000000044,70.00000000000031,-60.00000000000027,-20.00000000000009,80.00000000000036,40.00000000000018,20.00000000000009,-0.0,20.00000000000009,30.000000000000135,20.00000000000009
10.000000000000044,90.0000000000004,80.00000000000036,-50.00000000000022,-30.000000000000135,80.00000000000036,20.00000000000009,10.000000000000044,-0.0,10.000000000000044,20.00000000000009,10.000000000000044
-0.0,90.0000000000004,80.00000000000036,-50.00000000000022,-30.000000000000135,80.00000000000036,10.000000000000044,-0.0,-0.0,10.000000000000044,10.000000000000044,-0.0
10.000000000000044,90.0000000000004,70.00000000000031,-50.00000000000022,-30.000000000000135,80.00000000000036,10.000000000000044,-0.0,-0.0,10.000000000000044,10.000000000000044,-0.0
20.00000000000009,90.0000000000004,60.00000000000027,-70.00000000000031,-20.00000000000009,80.00000000000036,10.000000000000044,-0.0,-0.0,20.00000000000009,10.000000000000044,-0.0
40.00000000000018,100.00000000000044,50.00000000000022,-80.00000000000036,-0.0,80.00000000000036,20.00000000000009,10.000000000000044,10.000000000000044,20.00000000000009,10.000000000000044,-0.0
50.00000000000022,100.00000000000044,50.00000000000022,-80.00000000000036,-0.0,80.00000000000036,40.00000000000018,10.000000000000044,10.000000000000044,30.000000000000135,10.000000000000044,10.000000000000044
60.00000000000027,110.00000000000048,40.00000000000018,-80.00000000000036,-0.0,70.00000000000031,40.00000000000018,20.00000000000009,10.000000000000044,20.00000000000009,10.000000000000044,10.000000000000044
50.00000000000022,100.00000000000044,40.00000000000018,-80.00000000000036,-0.0,70.00000000000031,40.00000000000018,10.000000000000044,-0.0,10.000000000000044,10.000000000000044,10.000000000000044
30.000000000000135,100.00000000000044,40.00000000000018,-70.00000000000031,-0.0,60.00000000000027,30.000000000000135,10.000000000000044,-0.0,10.000000000000044,-0.0,-0.0
10.000000000000044,80.00000000000036,50.00000000000022,-50.00000000000022,-20.00000000000009,60.00000000000027,30.000000000000135,-0.0,-0.0,10.000000000000044,-0.0,-0.0
-0.0,70.00000000000031,60.00000000000027,-30.000000000000135,-30.000000000000135,60.00000000000027,20.00000000000009,-0.0,-0.0,10.000000000000044,-0.0,-0.0
-10.000000000000044,60.00000000000027,60.00000000000027,-20.00000000000009,-40.00000000000018,60.00000000000027,30.000000000000135,-0.0,-0.0,20.00000000000009,10.000000000000044,-0.0
-10.000000000000044,50.00000000000022,60.00000000000027,-20.00000000000009,-40.00000000000018,60.00000000000027,30.000000000000135,10.000000000000044,10.000000000000044,40.00000000000018,30.000000000000135,-0.0
-0.0,50.00000000000022,60.00000000000027,-20.00000000000009,-30.000000000000135,50.00000000000022,40.00000000000018,20.00000000000009,20.00000000000009,60.00000000000027,40.00000000000018,10.000000000000044
-0.0,50.00000000000022,40.00000000000018,-20.00000000000009,-20.00000000000009,50.00000000000022,50.00000000000022,40.00000000000018,20.00000000000009,60.00000000000027,50.00000000000022,30.000000000000135
-0.0,50.00000000000022,40.00000000000018,-20.00000000000009,-10.000000000000044,40.00000000000018,40.00000000000018,40.00000000000018,10.000000000000044,60.00000000000027,50.00000000000022,40.00000000000018
-0.0,40.00000000000018,30.000000000000135,-20.00000000000009,-10.000000000000044,30.000000000000135,30.000000000000135,30.000000000000135,10.000000000000044,50.00000000000022,50.00000000000022,40.00000000000018
-0.0,30.000000000000135,30.000000000000135,-10.000000000000044,-10.000000000000044,30.000000000000135,30.000000000000135,20.00000000000009,-0.0,50.00000000000022,40.00000000000018,40.00000000000018
-10.000000000000044,20.00000000000009,30.000000000000135,-0.0,-20.00000000000009,20.00000000000009,20.00000000000009,20.00000000000009,-0.0,50.00000000000022,40.00000000000018,30.000000000000135
-10.000000000000044,20.00000000000009,30.000000000000135,-0.0,-20.00000000000009,20.00000000000009,20.00000000000009,20.00000000000009,-0.0,50.00000000000022,40.00000000000018,30.000000000000135
-0.0,20.00000000000009,30.000000000000135,-0.0,-20.00000000000009,20.00000000000009,20.00000000000009,20.00000000000009,-0.0,50.00000000000022,40.00000000000018,30.000000000000135
-0.0,20.00000000000009,20.00000000000009,-0.0,-10.000000000000044,20.00000000000009,20.00000000000009,30.000000000000135,10.000000000000044,50.00000000000022,30.000000000000135,20.00000000000009
-0.0,20.00000000000009,10.000000000000044,-0.0,-0.0,10.000000000000044,20.00000000000009,30.000000000000135,10.000000000000044,50.00000000000022,30.000000000000135,20.00000000000009
-0.0,10.000000000000044,10.000000000000044,-0.0,-0.0,10.000000000000044,10.000000000000044,40.00000000000018,10.000000000000044,50.00000000000022,30.000000000000135,20.00000000000009
-0.0,10.000000000000044,-0.0,-0.0,-0.0,-0.0,10.000000000000044,40.00000000000018,10.000000000000044,50.00000000000022,30.000000000000135,20.00000000000009
-0.0,-0.0,-0.0,-0.0,-0.0,-0.0,-0.0,40.00000000000018,10.000000000000044,50.00000000000022,30.000000000000135,20.00000000000009
-0.0,-10.000000000000044,-10.000000000000044,10.000000000000044,-0.0,-10.000000000000044,-0.0,40.00000000000018,10.000000000000044,60.00000000000027,30.000000000000135,20.00000000000009
-0.0,-20.00000000000009,-20.00000000000009,10.000000000000044,-0.0,-20.00000000000009,-0.0,40.00000000000018,20.00000000000009,60.00000000000027,40.00000000000018,30.000000000000135
-0.0,-20.00000000000009,-30.000000000000135,10.000000000000044,10.000000000000044,-30.000000000000135,10.000000000000044,50.00000000000022,30.000000000000135,70.00000000000031,40.00000000000018,40.00000000000018
-0.0,-30.000000000000135,-30.000000000000135,10.000000000000044,10.000000000000044,-30.000000000000135,20.00000000000009,60.00000000000027,30.000000000000135,70.00000000000031,50.00000000000022,40.00000000000018
-0.0,-30.000000000000135,-30.000000000000135,-0.0,10.000000000000044,-20.00000000000009,30.000000000000135,60.00000000000027,30.000000000000135,80.00000000000036,60.00000000000027,40.00000000000018
-0.0,-20.00000000000009,-20.00000000000009,-0.0,-0.0,-20.00000000000009,40.00000000000018,70.00000000000031,20.00000000000009,60.00000000000027,60.00000000000027,40.00000000000018
-0.0,-20.00000000000009,-0.0,-0.0,-0.0,-0.0,30.000000000000135,70.00000000000031,-0.0,50.00000000000022,50.00000000000022,30.000000000000135
-10.000000000000044,-10.000000000000044,10.000000000000044,-0.0,-10.000000000000044,-0.0,10.000000000000044,50.00000000000022,-0.0,40.00000000000018,40.00000000000018,10.000000000000044
-10.000000000000044,-0.0,10.000000000000044,-0.0,-10.000000000000044,-0.0,-0.0,40.00000000000018,-0.0,30.000000000000135,30.000000000000135,-0.0
-10.000000000000044,-0.0,10.000000000000044,-0.0,-10.000000000000044,-0.0,-0.0,30.000000000000135,-0.0,30.000000000000135,20.00000000000009,-0.0
-0.0,-0.0,-0.0,-0.0,-0.0,-0.0,-0.0,30.000000000000135,-0.0,30.000000000000135,20.00000000000009,-0.0
-0.0,-0.0,-0.0,-0.0,-0.0,-0.0,-0.0,40.00000000000018,-0.0,40.00000000000018,20.00000000000009,-0.0
-0.0,-0.0,-0.0,-0.0,-0.0,-0.0,-0.0,50.00000000000022,-0.0,50.00000000000022,30.000000000000135,-0.0
-0.0,-0.0,-0.0,-0.0,-0.0,-0.0,-0.0,50.00000000000022,-0.0,50.00000000000022,30.000000000000135,10.000000000000044
-0.0,-0.0,-0.0,-0.0,-0.0,-0.0,10.000000000000044,60.00000000000027,-0.0,50.00000000000022,40.00000000000018,20.00000000000009
-0.0,-0.0,-0.0,-0.0,-0.0,-0.0,20.00000000000009,50.00000000000022,-0.0,40.00000000000018,30.000000000000135,20.00000000000009
-0.0,-0.0,-0.0,-0.0,-0.0,-0.0,10.000000000000044,40.00000000000018,-0.0,20.00000000000009,30.000000000000135,20.00000000000009
-10.000000000000044,-0.0,-0.0,-0.0,-0.0,-0.0,-0.0,20.00000000000009,-10.000000000000044,20.00000000000009,30.000000000000135,20.00000000000009
-10.000000000000044,-0.0,-0.0,10.000000000000044,-0.0,-0.0,-0.0,10.000000000000044,-10.000000000000044,10.000000000000044,30.000000000000135,20.00000000000009
-10.000000000000044,-10.000000000000044,-0.0,10.000000000000044,-0.0,-10.000000000000044,-0.0,10.000000000000044,-10.000000000000044,10.000000000000044,30.000000000000135,20.00000000000009
-10.000000000000044,-20.00000000000009,-10.000000000000044,10.000000000000044,-0.0,-10.000000000000044,-0.0,10.000000000000044,-0.0,10.000000000000044,30.000000000000135,20.00000000000009
-0.0,-20.00000000000009,-10.000000000000044,10.000000000000044,-0.0,-20.00000000000009,10.000000000000044,20.00000000000009,-0.0,10.000000000000044,30.000000000000135,10.000000000000044
-0.0,-20.00000000000009,-20.00000000000009,10.000000000000044,-0.0,-20.00000000000009,10.000000000000044,20.00000000000009,-0.0,10.000000000000044,30.000000000000135,10.000000000000044
-0.0,-20.00000000000009,-20.00000000000009,10.000000000000044,-0.0,-20.00000000000009,10.000000000000044,20.00000000000009,-10.000000000000044,-0.0,20.00000000000009,-0.0
-0.0,-20.00000000000009,-10.000000000000044,10.000000000000044,-0.0,-20.00000000000009,10.000000000000044,20.00000000000009,-10.000000000000044,-0.0,10.000000000000044,-0.0
-0.0,-20.00000000000009,-0.0,10.000000000000044,-0.0,-10.000000000000044,-0.0,10.000000000000044,-20.00000000000009,-0.0,-0.0,-10.000000000000044
-10.000000000000044,-10.000000000000044,-0.0,-0.0,-0.0,-0.0,-0.0,10.000000000000044,-20.00000000000009,-10.000000000000044,-0.0,-20.00000000000009
-10.000000000000044,-0.0,10.000000000000044,-0.0,-10.000000000000044,-0.0,-0.0,-0.0,-30.000000000000135,-10.000000000000044,-0.0,-20.00000000000009
-10.000000000000044,-0.0,10.000000000000044,-0.0,-10.000000000000044,-0.0,-0.0,-0.0,-30.000000000000135,-10.000000000000044,-10.000000000000044,-20.00000000000009
-10.000000000000044,-0.0,10.000000000000044,-0.0,-10.000000000000044,10.000000000000044,-0.0,-0.0,-30.000000000000135,-10.000000000000044,-0.0,-20.00000000000009
-10.000000000000044,-0.0,10.000000000000044,-0.0,-10.000000000000044,10.000000000000044,-0.0,-0.0,-20.00000000000009,-10.000000000000044,-0.0,-20.00000000000009
-0.0,-0.0,10.000000000000044,-0.0,-10.000000000000044,-0.0,10.000000000000044,-0.0,-20.00000000000009,-0.0,-0.0,-20.00000000000009
-0.0,-0.0,-0.0,-0.0,-0.0,-0.0,10.000000000000044,-0.0,-20.00000000000009,-0.0,-0.0,-20.00000000000009
-0.0,-0.0,-0.0,-0.0,-0.0,-0.0,10.000000000000044,-0.0,-20.00000000000009,-0.0,-0.0,-20.00000000000009
-0.0,-0.0,-0.0,-0.0,-0.0,-0.0,10.000000000000044,-0.0,-20.00000000000009,-0.0,-10.000000000000044,-20.00000000000009
-0.0,-0.0,-0.0,-0.0,-0.0,-0.0,-0.0,-0.0,-20.00000000000009,-0.0,-10.000000000000044,-20.00000000000009
-0.0,-0.0,-0.0,-0.0,-0.0,-0.0,-0.0,-0.0,-20.00000000000009,-0.0,-10.000000000000044,-20.00000000000009
-0.0,-0.0,-0.0,-0.0,-0.0,-0.0,-0.0,-0.0,-10.000000000000044,-0.0,-0.0,-20.00000000000009
-0.0,-0.0,-10.000000000000044,-0.0,-0.0,-10.000000000000044,-0.0,-0.0,-10.000000000000044,-0.0,-0.0,-20.00000000000009
-0.0,-10.000000000000044,-10.000000000000044,-0.0,-0.0,-10.000000000000044,-0.0,-0.0,-10.000000000000044,-0.0,-0.0,-10.000000000000044
-0.0,-20.00000000000009,-20.00000000000009,10.000000000000044,-0.0,-20.00000000000009,10.000000000000044,-0.0,-20.00000000000009,-10.000000000000044,-0.0,-10.000000000000044
-10.000000000000044,-30.000000000000135,-20.00000000000009,10.000000000000044,-0.0,-20.00000000000009,-0.0,-0.0,-20.00000000000009,-10.000000000000044,-0.0,-10.000000000000044
-10.000000000000044,-30.000000000000135,-10.000000000000044,20.00000000000009,-0.0,-20.00000000000009,10.000000000000044,-0.0,-20.00000000000009,-10.000000000000044,-0.0,-0.0
-10.000000000000044,-30.000000000000135,-10.000000000000044,10.000000000000044,-0.0,-10.000000000000044,10.000000000000044,-0.0,-20.00000000000009,-20.00000000000009,-0.0,-0.0
-0.0,-20.00000000000009,-0.0,-0.0,-0.0,-10.000000000000044,-0.0,-10.000000000000044,-30.000000000000135,-20.00000000000009,-0.0,-0.0
-0.0,-10.000000000000044,-0.0,-0.0,-0.0,-0.0,-0.0,-10.000000000000044,-30.000000000000135,-30.000000000000135,-0.0,-0.0
-0.0,-0.0,-0.0,-0.0,-0.0,-0.0,-0.0,-20.00000000000009,-30.000000000000135,-30.000000000000135,-10.000000000000044,-10.000000000000044
-0.0,-0.0,-0.0,-0.0,-0.0,-0.0,-0.0,-20.00000000000009,-30.000000000000135,-20.00000000000009,-20.00000000000009,-20.00000000000009
-0.0,-0.0,-0.0,-0.0,-0.0,-0.0,-0.0,-20.00000000000009,-30.000000000000135,-20.00000000000009,-20.00000000000009,-20.00000000000009
-0.0,-0.0,-0.0,-0.0,-0.0,-0.0,-0.0,-20.00000000000009,-30.000000000000135,-20.00000000000009,-20.00000000000009,-20.00000000000009
-0.0,-0.0,-0.0,-0.0,-0.0,-0.0,10.000000000000044,-20.00000000000009,-20.00000000000009,-10.000000000000044,-20.00000000000009,-20.00000000000009
-0.0,-0.0,-0.0,-0.0,-0.0,-0.0,10.000000000000044,-20.00000000000009,-20.00000000000009,-10.000000000000044,-10.000000000000044,-20.00000000000009
-0.0,-0.0,-10.000000000000044,-0.0,-0.0,-10.000000000000044,10.000000000000044,-10.000000000000044,-10.000000000000044,-0.0,-10.000000000000044,-10.000000000000044
-0.0,-10.000000000000044,-10.000000000000044,-0.0,-0.0,-10.000000000000044,20.00000000000009,-10.000000000000044,-0.0,-0.0,-0.0,-10.000000000000044
-0.0,-10.000000000000044,-10.000000000000044,-0.0,-0.0,-10.000000000000044,20.00000000000009,-10.000000000000044,-0.0,10.000000000000044,-0.0,-0.0
-10.000000000000044,-10.000000000000044,-0.0,-0.0,-0.0,-0.0,20.00000000000009,-0.0,10.000000000000044,10.000000000000044,-0.0,-0.0
-10.000000000000044,-10.000000000000044,-0.0,-0.0,-0.0,-0.0,30.000000000000135,-0.0,10.000000000000044,20.00000000000009,-0.0,-0.0
-10.000000000000044,-0.0,-0.0,-0.0,-10.000000000000044,-0.0,40.00000000000018,-0.0,20.00000000000009,30.000000000000135,10.000000000000044,10.000000000000044
-10.000000000000044,-0.0,-0.0,-0.0,-0.0,-0.0,50.00000000000022,-0.0,30.000000000000135,30.000000000000135,10.000000000000044,10.000000000000044
-0.0,-10.000000000000044,-10.000000000000044,10.000000000000044,-0.0,-10.000000000000044,50.00000000000022,-0.0,30.000000000000135,30.000000000000135,10.000000000000044,-0.0
-0.0,-20.00000000000009,-20.00000000000009,10.000000000000044,-0.0,-20.00000000000009,40.00000000000018,-0.0,20.00000000000009,20.00000000000009,10.000000000000044,-0.0
-0.0,-30.000000000000135,-20.00000000000009,20.00000000000009,-0.0,-30.000000000000135,20.00000000000009,-10.000000000000044,10.000000000000044,10.000000000000044,-0.0,-0.0
-10.000000000000044,-30.000000000000135,-20.00000000000009,20.00000000000009,-0.0,-20.00000000000009,-0.0,-30.000000000000135,-0.0,-0.0,-0.0,-0.0
-10.000000000000044,-30.000000000000135,-10.000000000000044,10.000000000000044,-0.0,-10.000000000000044,-0.0,-50.00000000000022,-0.0,-0.0,-0.0,-0.0
-10.000000000000044,-20.00000000000009,-0.0,-0.0,-0.0,-0.0,-10.000000000000044,-60.00000000000027,-10.000000000000044,-0.0,-0.0,-0.0
-0.0,-10.000000000000044,-0.0,-0.0,-0.0,-0.0,-20.00000000000009,-70.00000000000031,-10.000000000000044,-0.0,10.000000000000044,10.000000000000044
-0.0,-0.0,-0.0,-0.0,-0.0,-0.0,-20.00000000000009,-70.00000000000031,-0.0,-0.0,20.00000000000009,20.00000000000009
-0.0,-0.0,-0.0,-0.0,-0.0,-0.0,-20.00000000000009,-70.00000000000031,-0.0,-0.0,30.000000000000135,40.00000000000018
10.000000000000044,-0.0,-0.0,-0.0,-0.0,-0.0,-20.00000000000009,-60.00000000000027,-0.0,-0.0,40.00000000000018,40.00000000000018
-0.0,-0.0,-0.0,-10.000000000000044,-0.0,-0.0,-20.00000000000009,-50.00000000000022,-0.0,-0.0,50.00000000000022,50.00000000000022
-0.0,-0.0,10.000000000000044,-10.000000000000044,-0.0,10.000000000000044,-30.000000000000135,-50.00000000000022,-10.000000000000044,-10.000000000000044,40.00000000000018,40.00000000000018
-0.0,20.00000000000009,30.000000000000135,-10.000000000000044,-20.00000000000009,30.000000000000135,-30.000000000000135,-50.00000000000022,-30.000000000000135,-20.00000000000009,30.000000000000135,20.00000000000009
-0.0,30.000000000000135,50.00000000000022,-20.00000000000009,-30.000000000000135,50.00000000000022,-40.00000000000018,-60.00000000000027,-50.00000000000022,-40.00000000000018,10.000000000000044,-0.0
-10.000000000000044,40.00000000000018,60.00000000000027,-20.00000000000009,-40.00000000000018,60.00000000000027,-40.00000000000018,-70.00000000000031,-60.00000000000027,-50.00000000000022,-0.0,-0.0
-10.000000000000044,50.00000000000022,70.00000000000031,-10.000000000000044,-40.00000000000018,60.00000000000027,-40.00000000000018,-80.00000000000036,-70.00000000000031,-60.00000000000027,-10.000000000000044,-20.00000000000009
-10.000000000000044,50.00000000000022,70.00000000000031,-10.000000000000044,-40.00000000000018,60.00000000000027,-40.00000000000018,-80.00000000000036,-70.00000000000031,-60.00000000000027,-30.000000000000135,-30.000000000000135
-10.000000000000044,50.00000000000022,70.00000000000031,-20.00000000000009,-40.00000000000018,60.00000000000027,-40.00000000000018,-80.00000000000036,-70.00000000000031,-60.00000000000027,-40.00000000000018,-40.00000000000018
-0.0,50.00000000000022,70.00000000000031,-40.00000000000018,-30.000000000000135,70.00000000000031,-40.00000000000018,-90.0000000000004,-70.00000000000031,-60.00000000000027,-40.00000000000018,-40.00000000000018
-0.0,70.00000000000031,70.00000000000031,-50.00000000000022,-30.000000000000135,80.00000000000036,-40.00000000000018,-80.00000000000036,-70.00000000000031,-60.00000000000027,-40.00000000000018,-40.00000000000018
20.00000000000009,80.00000000000036,80.00000000000036,-70.00000000000031,-20.00000000000009,90.0000000000004,-40.00000000000018,-80.00000000000036,-70.00000000000031,-60.00000000000027,-40.00000000000018,-40.00000000000018
30.000000000000135,100.00000000000044,80.00000000000036,-70.00000000000031,-20.00000000000009,90.0000000000004,-40.00000000000018,-80.00000000000036,-70.00000000000031,-60.00000000000027,-40.00000000000018,-30.000000000000135
20.00000000000009,110.00000000000048,80.00000000000036,-70.00000000000031,-20.00000000000009,100.00000000000044,-40.00000000000018,-80.00000000000036,-80.00000000000036,-70.00000000000031,-40.00000000000018,-30.000000000000135
10.000000000000044,110.00000000000048,90.0000000000004,-60.00000000000027,-40.00000000000018,100.00000000000044,-40.00000000000018,-80.00000000000036,-80.00000000000036,-70.00000000000031,-40.00000000000018,-30.000000000000135
-0.0,100.00000000000044,90.0000000000004,-50.00000000000022,-40.00000000000018,90.0000000000004,-40.00000000000018,-90.0000000000004,-80.00000000000036,-80.00000000000036,-40.00000000000018,-30.000000000000135
-0.0,100.00000000000044,100.00000000000044,-40.00000000000018,-40.00000000000018,100.00000000000044,-40.00000000000018,-100.00000000000044,-90.0000000000004,-80.00000000000036,-50.00000000000022,-30.000000000000135
-0.0,100.00000000000044,100.00000000000044,-50.00000000000022,-40.00000000000018,100.00000000000044,-40.00000000000018,-100.00000000000044,-80.00000000000036,-80.00000000000036,-60.00000000000027,-40.00000000000018
10.000000000000044,100.00000000000044,90.0000000000004,-70.00000000000031,-40.00000000000018,100.00000000000044,-30.000000000000135,-100.00000000000044,-60.00000000000027,-80.00000000000036,-70.00000000000031,-50.00000000000022
30.000000000000135,110.00000000000048,70.00000000000031,-80.00000000000036,-20.00000000000009,100.00000000000044,-10.000000000000044,-60.00000000000027,-30.000000000000135,-50.00000000000022,-90.0000000000004,-70.00000000000031
50.00000000000022,110.00000000000048,60.00000000000027,-80.00000000000036,-0.0,90.0000000000004,-0.0,-10.000000000000044,30.000000000000135,-0.0,-90.0000000000004,-80.00000000000036
50.00000000000022,110.00000000000048,40.00000000000018,-80.00000000000036,-0.0,70.00000000000031,20.00000000000009,50.00000000000022,110.00000000000048,90.0000000000004,-80.00000000000036,-70.00000000000031
50.00000000000022,100.00000000000044,30.000000000000135,-70.00000000000031,-0.0,60.00000000000027,30.000000000000135,110.00000000000048,220.00000000000097,220.00000000000097,-20.00000000000009,-30.000000000000135
30.000000000000135,80.00000000000036,30.000000000000135,-50.00000000000022,-0.0,40.00000000000018,20.00000000000009,160.0000000000007,340.00000000000153,390.0000000000017,90.0000000000004,60.00000000000027
10.000000000000044,60.00000000000027,20.00000000000009,-30.000000000000135,-0.0,30.000000000000135,-20.00000000000009,150.00000000000065,430.00000000000193,570.0000000000025,270.0000000000012,210.00000000000094
-0.0,40.00000000000018,20.00000000000009,-10.000000000000044,-10.000000000000044,20.00000000000009,-80.00000000000036,50.00000000000022,490.00000000000216,720.0000000000032,490.00000000000216,410.0000000000018
-10.000000000000044,20.00000000000009,10.000000000000044,-0.0,-10.000000000000044,-0.0,-170.00000000000077,-130.00000000000057,450.000000000002,780.0000000000034,730.0000000000033,610.0000000000027
-10.000000000000044,-0.0,-0.0,-0.0,-10.000000000000044,-0.0,-270.0000000000012,-400.00000000000176,330.0000000000015,700.0000000000031,910.0000000000041,790.0000000000035
-10.000000000000044,-0.0,-0.0,10.000000000000044,-0.0,-10.000000000000044,-360.0000000000016,-720.0000000000032,140.00000000000063,500.0000000000022,990.0000000000044,890.000000000004
-0.0,-10.000000000000044,-20.00000000000009,-0.0,-0.0,-20.00000000000009,-440.00000000000193,-1050.0000000000048,-120.00000000000054,200.00000000000088,900.000000000004,860.0000000000039
-0.0,-10.000000000000044,-30.000000000000135,-0.0,10.000000000000044,-20.00000000000009,-480.00000000000216,-1340.000000000006,-400.00000000000176,-150.00000000000065,700.0000000000031,720.0000000000032
10.000000000000044,-20.00000000000009,-30.000000000000135,-0.0,20.00000000000009,-20.00000000000009,-490.00000000000216,-1540.0000000000068,-640.0000000000028,-470.0000000000021,410.0000000000018,500.0000000000022
-0.0,-20.00000000000009,-30.000000000000135,-0.0,20.00000000000009,-20.00000000000009,-470.0000000000021,-1630.0000000000073,-800.0000000000035,-710.0000000000032,100.00000000000044,250.0000000000011
-0.0,-20.00000000000009,-30.000000000000135,10.000000000000044,-0.0,-20.00000000000009,-440.00000000000193,-1590.000000000007,-870.0000000000039,-820.0000000000036,-150.00000000000065,30.000000000000135
-20.00000000000009,-30.000000000000135,-20.00000000000009,20.00000000000009,-0.0,-30.000000000000135,-400.00000000000176,-1470.0000000000066,-830.0000000000036,-800.0000000000035,-310.00000000000136,-130.00000000000057
-40.00000000000018,-40.00000000000018,-20.00000000000009,40.00000000000018,-0.0,-40.00000000000018,-360.0000000000016,-1280.0000000000057,-720.0000000000032,-690.0000000000031,-380.0000000000017,-210.00000000000094
-50.00000000000022,-70.00000000000031,-40.00000000000018,60.00000000000027,-0.0,-60.00000000000027,-320.0000000000014,-1070.0000000000048,-590.0000000000026,-560.0000000000025,-350.00000000000153,-230.00000000000102
-50.00000000000022,-90.0000000000004,-60.00000000000027,70.00000000000031,-0.0,-80.00000000000036,-270.0000000000012,-860.0000000000039,-450.000000000002,-420.0000000000019,-300.0000000000013,-200.00000000000088
-50.00000000000022,-110.00000000000048,-70.00000000000031,80.00000000000036,-0.0,-100.00000000000044,-220.00000000000097,-670.000000000003,-330.0000000000015,-320.0000000000014,-240.00000000000108,-170.00000000000077
-30.000000000000135,-120.00000000000054,-80.00000000000036,70.00000000000031,20.00000000000009,-100.00000000000044,-170.00000000000077,-510.0000000000023,-240.00000000000108,-250.0000000000011,-190.00000000000085,-140.00000000000063
-10.000000000000044,-110.00000000000048,-70.00000000000031,30.000000000000135,30.000000000000135,-70.00000000000031,-120.00000000000054,-380.0000000000017,-190.00000000000085,-200.00000000000088,-170.00000000000077,-120.00000000000054
30.000000000000135,-70.00000000000031,-20.00000000000009,-20.00000000000009,20.00000000000009,-10.000000000000044,-80.00000000000036,-290.0000000000013,-150.00000000000065,-160.0000000000007,-150.00000000000065,-110.00000000000048
80.00000000000036,10.000000000000044,60.00000000000027,-110.00000000000048,-0.0,90.0000000000004,-60.00000000000027,-220.00000000000097,-130.00000000000057,-140.00000000000063,-130.00000000000057,-100.00000000000044
130.00000000000057,130.00000000000057,190.00000000000085,-230.00000000000102,-30.000000000000135,250.0000000000011,-40.00000000000018,-160.0000000000007,-120.00000000000054,-120.00000000000054,-120.00000000000054,-90.0000000000004
160.0000000000007,310.00000000000136,350.00000000000153,-350.00000000000153,-100.00000000000044,440.00000000000193,-30.000000000000135,-120.00000000000054,-110.00000000000048,-100.00000000000044,-110.00000000000048,-90.0000000000004
180.0000000000008,520.0000000000023,530.0000000000024,-450.000000000002,-180.0000000000008,620.0000000000027,-20.00000000000009,-100.00000000000044,-100.00000000000044,-90.0000000000004,-100.00000000000044,-90.0000000000004
150.00000000000065,720.0000000000032,700.0000000000031,-510.0000000000023,-280.00000000000125,780.0000000000034,-10.000000000000044,-90.0000000000004,-90.0000000000004,-80.00000000000036,-100.00000000000044,-80.00000000000036
100.00000000000044,860.0000000000039,820.0000000000036,-510.0000000000023,-360.0000000000016,870.0000000000039,-10.000000000000044,-70.00000000000031,-80.00000000000036,-70.00000000000031,-90.0000000000004,-80.00000000000036
30.000000000000135,930.0000000000041,860.0000000000039,-460.00000000000205,-410.0000000000018,870.0000000000039,-0.0,-50.00000000000022,-60.00000000000027,-60.00000000000027,-80.00000000000036,-70.00000000000031
-40.00000000000018,890.000000000004,820.0000000000036,-370.00000000000165,-430.00000000000193,800.0000000000035,-0.0,-30.000000000000135,-50.00000000000022,-50.00000000000022,-70.00000000000031,-60.00000000000027
-110.00000000000048,780.0000000000034,730.0000000000033,-250.0000000000011,-420.0000000000019,670.000000000003,10.000000000000044,-20.00000000000009,-40.00000000000018,-40.00000000000018,-60.00000000000027,-50.00000000000022
-170.00000000000077,620.0000000000027,610.0000000000027,-140.00000000000063,-390.0000000000017,530.0000000000024,10.000000000000044,-10.000000000000044,-40.00000000000018,-40.00000000000018,-50.00000000000022,-50.00000000000022
-210.00000000000094,450.000000000002,500.0000000000022,-40.00000000000018,-350.00000000000153,400.00000000000176,10.000000000000044,-0.0,-50.00000000000022,-40.00000000000018,-50.00000000000022,-50.00000000000022
-230.00000000000102,290.0000000000013,400.00000000000176,30.000000000000135,-310.00000000000136,280.00000000000125,10.000000000000044,-0.0,-60.00000000000027,-50.00000000000022,-50.00000000000022,-50.00000000000022
-230.00000000000102,170.00000000000077,320.0000000000014,60.00000000000027,-280.00000000000125,200.00000000000088,-0.0,-10.000000000000044,-60.00000000000027,-50.00000000000022,-50.00000000000022,-50.00000000000022
-220.00000000000097,90.0000000000004,260.00000000000114,80.00000000000036,-240.00000000000108,150.00000000000065,-0.0,-10.000000000000044,-60.00000000000027,-50.00000000000022,-60.00000000000027,-50.00000000000022
-190.00000000000085,40.00000000000018,210.00000000000094,80.00000000000036,-200.00000000000088,100.00000000000044,-0.0,-10.000000000000044,-60.00000000000027,-50.00000000000022,-60.00000000000027,-50.00000000000022
-150.00000000000065,10.000000000000044,150.00000000000065,70.00000000000031,-150.00000000000065,70.00000000000031,-0.0,-10.000000000000044,-60.00000000000027,-50.00000000000022,-60.00000000000027,-50.00000000000022
-110.00000000000048,-0.0,100.00000000000044,50.00000000000022,-100.00000000000044,40.00000000000018,-0.0,-0.0,-50.00000000000022,-40.00000000000018,-50.00000000000022,-50.00000000000022
-70.00000000000031,-0.0,50.00000000000022,30.000000000000135,-60.00000000000027,10.000000000000044,-0.0,-0.0,-40.00000000000018,-40.00000000000018,-50.00000000000022,-40.00000000000018
-50.00000000000022,-10.000000000000044,20.00000000000009,20.00000000000009,-40.00000000000018,-0.0,-0.0,-0.0,-30.000000000000135,-30.000000000000135,-40.00000000000018,-40.00000000000018
-30.000000000000135,-10.000000000000044,-0.0,20.00000000000009,-20.00000000000009,-0.0,-0.0,10.000000000000044,-20.00000000000009,-20.00000000000009,-40.00000000000018,-40.00000000000018
-20.00000000000009,-20.00000000000009,-0.0,20.00000000000009,-10.000000000000044,-0.0,-0.0,20.00000000000009,-10.000000000000044,-20.00000000000009,-30.000000000000135,-40.00000000000018
-30.000000000000135,-20.00000000000009,-0.0,20.00000000000009,-10.000000000000044,-0.0,-0.0,30.000000000000135,-10.000000000000044,-10.000000000000044,-30.000000000000135,-40.00000000000018
-30.000000000000135,-20.00000000000009,-0.0,30.000000000000135,-10.000000000000044,-10.000000000000044,-0.0,40.00000000000018,-0.0,-0.0,-30.000000000000135,-40.00000000000018
-30.000000000000135,-30.000000000000135,-0.0,30.000000000000135,-10.000000000000044,-10.000000000000044,-0.0,50.00000000000022,-0.0,-0.0,-30.000000000000135,-40.00000000000018
-30.000000000000135,-30.000000000000135,-10.000000000000044,30.000000000000135,-10.000000000000044,-20.00000000000009,-0.0,50.00000000000022,-0.0,-0.0,-20.00000000000009,-30.000000000000135
-20.00000000000009,-40.00000000000018,-20.00000000000009,30.000000000000135,-0.0,-30.000000000000135,-0.0,60.00000000000027,-0.0,-0.0,-20.00000000000009,-30.000000000000135
-10.000000000000044,-40.00000000000018,-30.000000000000135,20.00000000000009,-0.0,-40.00000000000018,-0.0,60.00000000000027,10.000000000000044,-0.0,-10.000000000000044,-20.00000000000009
-0.0,-40.00000000000018,-30.000000000000135,20.00000000000009,10.000000000000044,-40.00000000000018,10.000000000000044,70.00000000000031,10.000000000000044,-0.0,-10.000000000000044,-10.000000000000044
-0.0,-40.00000000000018,-30.000000000000135,20.00000000000009,10.000000000000044,-30.000000000000135,10.000000000000044,70.00000000000031,10.000000000000044,10.000000000000044,-0.0,-0.0
-0.0,-40.00000000000018,-30.000000000000135,10.000000000000044,10.000000000000044,-30.000000000000135,10.000000000000044,80.00000000000036,20.00000000000009,10.000000000000044,-0.0,-0.0
-0.0,-30.000000000000135,-20.00000000000009,20.00000000000009,-0.0,-30.000000000000135,-0.0,90.0000000000004,30.000000000000135,20.00000000000009,-0.0,-0.0
-10.000000000000044,-30.000000000000135,-20.00000000000009,20.00000000000009,-0.0,-30.000000000000135,-0.0,100.00000000000044,30.000000000000135,20.00000000000009,10.000000000000044,-0.0
-10.000000000000044,-30.000000000000135,-20.00000000000009,20.00000000000009,-0.0,-30.000000000000135,-0.0,110.00000000000048,40.00000000000018,30.000000000000135,20.00000000000009,-0.0
-10.000000000000044,-30.000000000000135,-20.00000000000009,20.00000000000009,-0.0,-30.000000000000135,-0.0,120.00000000000054,50.00000000000022,50.00000000000022,30.000000000000135,-0.0
-10.000000000000044,-30.000000000000135,-10.000000000000044,20.00000000000009,-0.0,-20.00000000000009,-0.0,140.00000000000063,70.00000000000031,60.00000000000027,40.00000000000018,10.000000000000044
-10.000000000000044,-30.000000000000135,-10.000000000000044,10.000000000000044,-0.0,-20.00000000000009,-0.0,150.00000000000065,80.00000000000036,70.00000000000031,40.00000000000018,20.00000000000009
-0.0,-30.000000000000135,-10.000000000000044,10.000000000000044,-0.0,-10.000000000000044,10.000000000000044,170.00000000000077,100.00000000000044,90.0000000000004,50.00000000000022,30.000000000000135
-0.0,-20.00000000000009,-0.0,-0.0,-0.0,-0.0,20.00000000000009,190.00000000000085,110.00000000000048,100.00000000000044,60.00000000000027,40.00000000000018
-10.000000000000044,-10.000000000000044,10.000000000000044,-0.0,-10.000000000000044,-0.0,30.000000000000135,210.00000000000094,130.00000000000057,110.00000000000048,70.00000000000031,50.00000000000022
-10.000000000000044,-0.0,20.00000000000009,-0.0,-20.00000000000009,10.000000000000044,40.00000000000018,230.00000000000102,140.00000000000063,120.00000000000054,80.00000000000036,50.00000000000022
-10.000000000000044,10.000000000000044,30.000000000000135,-0.0,-20.00000000000009,20.00000000000009,50.00000000000022,250.0000000000011,150.00000000000065,130.00000000000057,90.0000000000004,60.00000000000027
-10.000000000000044,10.000000000000044,30.000000000000135,-0.0,-20.00000000000009,20.00000000000009,60.00000000000027,260.00000000000114,160.0000000000007,130.00000000000057,90.0000000000004,60.00000000000027
-0.0,20.00000000000009,20.00000000000009,-0.0,-10.000000000000044,20.00000000000009,60.00000000000027,280.00000000000125,160.0000000000007,130.00000000000057,90.0000000000004,60.00000000000027
-0.0,20.00000000000009,10.000000000000044,-0.0,-0.0,10.000000000000044,60.00000000000027,280.00000000000125,160.0000000000007,120.00000000000054,80.00000000000036,60.00000000000027
-0.0,10.000000000000044,-0.0,-10.000000000000044,-0.0,10.000000000000044,60.00000000000027,280.00000000000125,160.0000000000007,110.00000000000048,80.00000000000036,60.00000000000027
10.000000000000044,10.000000000000044,-0.0,-20.00000000000009,-0.0,10.000000000000044,60.00000000000027,270.0000000000012,160.0000000000007,110.00000000000048,70.00000000000031,50.00000000000022
10.000000000000044,20.00000000000009,10.000000000000044,-20.00000000000009,-0.0,20.00000000000009,60.00000000000027,270.0000000000012,160.0000000000007,110.00000000000048,70.00000000000031,50.00000000000022
20.00000000000009,30.000000000000135,10.000000000000044,-30.000000000000135,-0.0,20.00000000000009,60.00000000000027,270.0000000000012,160.0000000000007,110.00000000000048,70.00000000000031,50.00000000000022
20.00000000000009,40.00000000000018,20.00000000000009,-30.000000000000135,-0.0,30.000000000000135,60.00000000000027,280.00000000000125,170.00000000000077,110.00000000000048,80.00000000000036,60.00000000000027
20.00000000000009,50.00000000000022,20.00000000000009,-40.00000000000018,-0.0,40.00000000000018,70.00000000000031,280.00000000000125,180.0000000000008,120.00000000000054,80.00000000000036,60.00000000000027
20.00000000000009,50.00000000000022,20.00000000000009,-40.00000000000018,-0.0,40.00000000000018,80.00000000000036,290.0000000000013,190.00000000000085,130.00000000000057,80.00000000000036,60.00000000000027
30.000000000000135,50.00000000000022,20.00000000000009,-40.00000000000018,-0.0,40.00000000000018,100.00000000000044,290.0000000000013,190.00000000000085,140.00000000000063,80.00000000000036,60.00000000000027
40.00000000000018,50.00000000000022,10.000000000000044,-50.00000000000022,-0.0,30.000000000000135,110.00000000000048,280.00000000000125,180.0000000000008,130.00000000000057,70.00000000000031,50.00000000000022
40.00000000000018,60.00000000000027,10.000000000000044,-50.00000000000022,10.000000000000044,40.00000000000018,110.00000000000048,260.00000000000114,170.00000000000077,120.00000000000054,60.00000000000027,40.00000000000018
40.00000000000018,60.00000000000027,20.00000000000009,-50.00000000000022,-0.0,40.00000000000018,110.00000000000048,240.00000000000108,170.00000000000077,110.00000000000048,50.00000000000022,30.000000000000135
30.000000000000135,70.00000000000031,30.000000000000135,-60.00000000000027,-0.0,50.00000000000022,90.0000000000004,220.00000000000097,160.0000000000007,110.00000000000048,50.00000000000022,20.00000000000009
20.00000000000009,80.00000000000036,50.00000000000022,-50.00000000000022,-20.00000000000009,70.00000000000031,80.00000000000036,210.00000000000094,160.0000000000007,110.00000000000048,40.00000000000018,20.00000000000009
10.000000000000044,80.00000000000036,70.00000000000031,-50.00000000000022,-30.000000000000135,80.00000000000036,70.00000000000031,200.00000000000088,160.0000000000007,120.00000000000054,40.00000000000018,20.00000000000009
-0.0,90.0000000000004,80.00000000000036,-50.00000000000022,-30.000000000000135,90.0000000000004,70.00000000000031,180.0000000000008,160.0000000000007,120.00000000000054,40.00000000000018,20.00000000000009
-0.0,90.0000000000004,90.0000000000004,-50.00000000000022,-40.00000000000018,90.0000000000004,70.00000000000031,170.00000000000077,150.00000000000065,120.00000000000054,50.00000000000022,20.00000000000009
10.000000000000044,100.00000000000044,80.00000000000036,-60.00000000000027,-30.000000000000135,90.0000000000004,80.00000000000036,160.0000000000007,140.00000000000063,110.00000000000048,40.00000000000018,20.00000000000009
20.00000000000009,100.00000000000044,70.00000000000031,-70.00000000000031,-20.00000000000009,90.0000000000004,70.00000000000031,140.00000000000063,130.00000000000057,100.00000000000044,40.00000000000018,10.000000000000044
40.00000000000018,100.00000000000044,60.00000000000027,-80.00000000000036,-10.000000000000044,90.0000000000004,70.00000000000031,120.00000000000054,120.00000000000054,90.0000000000004,30.000000000000135,10.000000000000044
50.00000000000022,110.00000000000048,60.00000000000027,-90.0000000000004,-0.0,90.0000000000004,50.00000000000022,100.00000000000044,110.00000000000048,80.00000000000036,30.000000000000135,-0.0
60.00000000000027,120.00000000000054,60.00000000000027,-100.00000000000044,-0.0,90.0000000000004,40.00000000000018,90.0000000000004,100.00000000000044,80.00000000000036,30.000000000000135,-0.0
60.00000000000027,120.00000000000054,70.00000000000031,-100.00000000000044,-0.0,100.00000000000044,40.00000000000018,80.00000000000036,100.00000000000044,80.00000000000036,30.000000000000135,10.000000000000044
50.00000000000022,130.00000000000057,80.00000000000036,-100.00000000000044,-10.000000000000044,110.00000000000048,30.000000000000135,70.00000000000031,90.0000000000004,70.00000000000031,30.000000000000135,10.000000000000044
30.000000000000135,140.00000000000063,100.00000000000044,-90.0000000000004,-30.000000000000135,120.00000000000054,30.000000000000135,60.00000000000027,80.00000000000036,60.00000000000027,40.00000000000018,10.000000000000044
20.00000000000009,140.00000000000063,110.00000000000048,-90.0000000000004,-50.00000000000022,130.00000000000057,20.00000000000009,50.00000000000022,80.00000000000036,60.00000000000027,30.000000000000135,10.000000000000044
10.000000000000044,140.00000000000063,120.00000000000054,-80.00000000000036,-50.00000000000022,130.00000000000057,20.00000000000009,50.00000000000022,70.00000000000031,40.00000000000018,30.000000000000135,10.000000000000044
20.00000000000009,140.00000000000063,110.00000000000048,-80.00000000000036,-40.00000000000018,120.00000000000054,10.000000000000044,40.00000000000018,60.00000000000027,40.00000000000018,20.00000000000009,-0.0
20.00000000000009,140.00000000000063,100.00000000000044,-80.00000000000036,-30.000000000000135,120.00000000000054,-0.0,30.000000000000135,60.00000000000027,30.000000000000135,10.000000000000044,-0.0
30.000000000000135,130.00000000000057,90.0000000000004,-80.00000000000036,-20.00000000000009,110.00000000000048,-0.0,20.00000000000009,60.00000000000027,30.000000000000135,10.000000000000044,-0.0
40.00000000000018,130.00000000000057,90.0000000000004,-80.00000000000036,-20.00000000000009,110.00000000000048,-0.0,20.00000000000009,50.00000000000022,20.00000000000009,10.000000000000044,-0.0
40.00000000000018,130.00000000000057,90.0000000000004,-80.00000000000036,-20.00000000000009,100.00000000000044,-0.0,20.00000000000009,50.00000000000022,20.00000000000009,10.000000000000044,-0.0
30.000000000000135,130.00000000000057,90.0000000000004,-80.00000000000036,-30.000000000000135,110.00000000000048,10.000000000000044,10.000000000000044,50.00000000000022,20.00000000000009,10.000000000000044,-0.0
20.00000000000009,120.00000000000054,100.00000000000044,-70.00000000000031,-30.000000000000135,100.00000000000044,10.000000000000044,10.000000000000044,40.00000000000018,10.000000000000044,10.000000000000044,-0.0
10.000000000000044,120.00000000000054,100.00000000000044,-60.00000000000027,-40.00000000000018,100.00000000000044,20.00000000000009,-0.0,40.00000000000018,10.000000000000044,-0.0,-0.0
-0.0,110.00000000000048,90.0000000000004,-50.00000000000022,-40.00000000000018,90.0000000000004,30.000000000000135,-0.0,40.00000000000018,-0.0,-0.0,-0.0
-0.0,90.0000000000004,80.00000000000036,-40.00000000000018,-40.00000000000018,80.00000000000036,30.000000000000135,-0.0,40.00000000000018,-0.0,-0.0,-0.0
-0.0,80.00000000000036,70.00000000000031,-30.000000000000135,-40.00000000000018,70.00000000000031,30.000000000000135,-0.0,30.000000000000135,-0.0,-0.0,-0.0
-0.0,60.00000000000027,60.00000000000027,-20.00000000000009,-30.000000000000135,50.00000000000022,20.00000000000009,-0.0,30.000000000000135,-0.0,-0.0,-10.000000000000044
-0.0,50.00000000000022,50.00000000000022,-20.00000000000009,-20.00000000000009,50.00000000000022,20.00000000000009,-0.0,30.000000000000135,-0.0,-0.0,-10.000000000000044
-0.0,50.00000000000022,40.00000000000018,-20.00000000000009,-10.000000000000044,40.00000000000018,20.00000000000009,-0.0,40.00000000000018,-0.0,-0.0,-10.000000000000044
10.000000000000044,50.00000000000022,30.000000000000135,-30.000000000000135,-10.000000000000044,40.00000000000018,30.000000000000135,-0.0,40.00000000000018,10.000000000000044,-0.0,-0.0
10.000000000000044,40.00000000000018,20.00000000000009,-30.000000000000135,-0.0,30.000000000000135,30.000000000000135,-0.0,50.00000000000022,10.000000000000044,-0.0,-0.0
20.00000000000009,40.00000000000018,10.000000000000044,-30.000000000000135,-0.0,20.00000000000009,40.00000000000018,-0.0,50.00000000000022,20.00000000000009,-0.0,-0.0
20.00000000000009,30.000000000000135,-0.0,-20.00000000000009,-0.0,10.000000000000044,50.00000000000022,10.000000000000044,50.00000000000022,20.00000000000009,10.000000000000044,-0.0
20.00000000000009,20.00000000000009,-0.0,-20.00000000000009,10.000000000000044,-0.0,40.00000000000018,20.00000000000009,50.00000000000022,10.000000000000044,-0.0,-0.0
20.00000000000009,20.00000000000009,-10.000000000000044,-20.00000000000009,10.000000000000044,-0.0,30.000000000000135,10.000000000000044,40.00000000000018,-0.0,-0.0,-0.0
30.000000000000135,10.000000000000044,-10.000000000000044,-20.00000000000009,20.00000000000009,-0.0,10.000000000000044,10.000000000000044,30.000000000000135,-0.0,-0.0,-0.0
20.00000000000009,10.000000000000044,-10.000000000000044,-10.000000000000044,10.000000000000044,-0.0,-0.0,-0.0,30.000000000000135,-0.0,-0.0,-10.000000000000044
-0.0,10.000000000000044,-0.0,-10.000000000000044,-0.0,-0.0,-0.0,-0.0,30.000000000000135,-0.0,-0.0,-10.000000000000044
-0.0,10.000000000000044,10.000000000000044,-0.0,-10.000000000000044,10.000000000000044,-0.0,-0.0,30.000000000000135,-0.0,-0.0,-10.000000000000044
-10.000000000000044,10.000000000000044,20.00000000000009,-0.0,-20.00000000000009,10.000000000000044,-0.0,-0.0,40.00000000000018,10.000000000000044,-0.0,-10.000000000000044
-10.000000000000044,10.000000000000044,30.000000000000135,-0.0,-20.00000000000009,20.00000000000009,10.000000000000044,10.000000000000044,50.00000000000022,20.00000000000009,-0.0,-0.0
-10.000000000000044,10.000000000000044,30.000000000000135,-0.0,-20.00000000000009,20.00000000000009,20.00000000000009,30.000000000000135,50.00000000000022,30.000000000000135,-0.0,-0.0
-0.0,10.000000000000044,30.000000000000135,-0.0,-20.00000000000009,20.00000000000009,30.000000000000135,40.00000000000018,40.00000000000018,30.000000000000135,-0.0,-0.0
-0.0,20.00000000000009,20.00000000000009,-10.000000000000044,-10.000000000000044,20.00000000000009,30.000000000000135,40.00000000000018,40.00000000000018,20.00000000000009,-0.0,-0.0
-0.0,20.00000000000009,10.000000000000044,-10.000000000000044,-0.0,20.00000000000009,20.00000000000009,30.000000000000135,30.000000000000135,20.00000000000009,-0.0,-0.0
10.000000000000044,20.00000000000009,10.000000000000044,-10.000000000000044,-0.0,10.000000000000044,10.000000000000044,20.00000000000009,30.000000000000135,20.00000000000009,-0.0,-0.0
10.000000000000044,20.00000000000009,-0.0,-10.000000000000044,-0.0,10.000000000000044,-0.0,20.00000000000009,20.00000000000009,20.00000000000009,-0.0,-0.0
-0.0,10.000000000000044,-0.0,-10.000000000000044,-0.0,-0.0,-0.0,20.00000000000009,30.000000000000135,20.00000000000009,-0.0,-0.0
-0.0,10.000000000000044,-0.0,-0.0,-0.0,-0.0,-0.0,20.00000000000009,30.000000000000135,30.000000000000135,10.000000000000044,-0.0
-0.0,-0.0,-0.0,-0.0,-0.0,-0.0,-0.0,30.000000000000135,40.00000000000018,30.000000000000135,10.000000000000044,10.000000000000044
-0.0,-0.0,-0.0,-0.0,-0.0,-0.0,-0.0,30.000000000000135,40.00000000000018,40.00000000000018,20.00000000000009,10.000000000000044
-0.0,-0.0,10.000000000000044,-0.0,-10.000000000000044,-0.0,10.000000000000044,40.00000000000018,40.00000000000018,40.00000000000018,20.00000000000009,10.000000000000044
-0.0,-0.0,-0.0,-0.0,-0.0,-0.0,10.000000000000044,40.00000000000018,30.000000000000135,40.00000000000018,20.00000000000009,10.000000000000044
-0.0,-0.0,-0.0,-0.0,-0.0,-0.0,10.000000000000044,40.00000000000018,30.000000000000135,40.00000000000018,20.00000000000009,-0.0
-0.0,-0.0,-0.0,-0.0,-0.0,-0.0,-0.0,30.000000000000135,20.00000000000009,30.000000000000135,10.000000000000044,-0.0
-0.0,-0.0,-10.000000000000044,-0.0,-0.0,-0.0,-0.0,30.000000000000135,20.00000000000009,30.000000000000135,10.000000000000044,-0.0
-0.0,-0.0,-10.000000000000044,-0.0,-0.0,-0.0,-0.0,20.00000000000009,20.00000000000009,30.000000000000135,10.000000000000044,-0.0
-0.0,-0.0,-0.0,-0.0,-0.0,-0.0,-0.0,20.00000000000009,10.000000000000044,30.000000000000135,10.000000000000044,-0.0
-20.00000000000009,-0.0,-0.0,10.000000000000044,-10.000000000000044,-0.0,-0.0,20.00000000000009,10.000000000000044,30.000000000000135,10.000000000000044,-0.0
-30.000000000000135,-0.0,10.000000000000044,10.000000000000044,-20.00000000000009,-0.0,-0.0,20.00000000000009,10.000000000000044,30.000000000000135,-0.0,-0.0
-20.00000000000009,-0.0,20.00000000000009,10.000000000000044,-20.00000000000009,-0.0,-0.0,20.00000000000009,10.000000000000044,20.00000000000009,-0.0,-0.0
-20.00000000000009,-0.0,20.00000000000009,-0.0,-20.00000000000009,10.000000000000044,-0.0,10.000000000000044,-0.0,20.00000000000009,-0.0,-0.0
-10.000000000000044,-0.0,10.000000000000044,-0.0,-10.000000000000044,10.000000000000044,-0.0,10.000000000000044,-0.0,10.000000000000044,-0.0,-0.0
-0.0,-0.0,10.000000000000044,-10.000000000000044,-0.0,10.000000000000044,-0.0,-0.0,-0.0,10.000000000000044,-0.0,-0.0
-0.0,10.000000000000044,-0.0,-10.000000000000044,-0.0,10.000000000000044,-0.0,-0.0,-0.0,10.000000000000044,-0.0,-0.0
10.000000000000044,10.000000000000044,-0.0,-10.000000000000044,-0.0,-0.0,-0.0,-0.0,-0.0,10.000000000000044,-0.0,-0.0
10.000000000000044,10.000000000000044,-0.0,-10.000000000000044,-0.0,-0.0,-0.0,-0.0,-0.0,-0.0,-0.0,-0.0
-0.0,10.000000000000044,-0.0,-0.0,-0.0,-0.0,-0.0,-0.0,-0.0,-0.0,-0.0,-0.0
-0.0,-0.0,-0.0,-0.0,-0.0,-0.0,-0.0,-0.0,-0.0,-0.0,-0.0,-0.0
-0.0,-0.0,-0.0,-0.0,-0.0,-0.0,-0.0,-0.0,-0.0,-0.0,-0.0,-0.0
-10.000000000000044,-0.0,-0.0,-0.0,-0.0,-0.0,-0.0,-0.0,-0.0,-0.0,-10.000000000000044,-10.000000000000044
-0.0,-0.0,-0.0,-0.0,-0.0,-0.0,-0.0,-0.0,-0.0,-0.0,-10.000000000000044,-10.000000000000044
-0.0,-0.0,-0.0,-0.0,-0.0,-0.0,-0.0,-0.0,-0.0,-0.0,-10.000000000000044,-0.0
-0.0,-0.0,-0.0,-0.0,-0.0,-0.0,-0.0,-0.0,-0.0,-0.0,-10.000000000000044,-0.0
10.000000000000044,-0.0,-10.000000000000044,-10.000000000000044,-0.0,-0.0,10.000000000000044,-0.0,-0.0,-0.0,-10.000000000000044,-0.0
10.000000000000044,-0.0,-0.0,-10.000000000000044,10.000000000000044,-0.0,-0.0,-0.0,-0.0,-10.000000000000044,-10.000000000000044,-0.0
10.000000000000044,-0.0,-10.000000000000044,-0.0,10.000000000000044,-0.0,-0.0,-0.0,-10.000000000000044,-10.000000000000044,-10.000000000000044,-0.0
-0.0,-0.0,-0.0,-0.0,-0.0,-0.0,-0.0,-10.000000000000044,-20.00000000000009,-20.00000000000009,-20.00000000000009,-10.000000000000044
-10.000000000000044,-0.0,-0.0,-0.0,-0.0,-0.0,-10.000000000000044,-10.000000000000044,-20.00000000000009,-20.00000000000009,-20.00000000000009,-20.00000000000009
-20.00000000000009,-10.000000000000044,-0.0,10.000000000000044,-10.000000000000044,-10.000000000000044,-10.000000000000044,-10.000000000000044,-20.00000000000009,-20.00000000000009,-20.00000000000009,-20.00000000000009
-20.00000000000009,-20.00000000000009,-0.0,20.00000000000009,-10.000000000000044,-0.0,-10.000000000000044,-10.000000000000044,-10.000000000000044,-20.00000000000009,-20.00000000000009,-10.000000000000044
-20.00000000000009,-20.00000000000009,-0.0,20.00000000000009,-10.000000000000044,-0.0,-0.0,-0.0,-10.000000000000044,-10.000000000000044,-20.00000000000009,-10.000000000000044
-10.000000000000044,-20.00000000000009,-0.0,10.000000000000044,-0.0,-10.000000000000044,-0.0,-0.0,-10.000000000000044,-20.00000000000009,-10.000000000000044,-0.0
-0.0,-20.00000000000009,-0.0,-0.0,-0.0,-0.0,-0.0,-0.0,-10.000000000000044,-20.00000000000009,-10.000000000000044,-0.0
-0.0,-10.000000000000044,-10.000000000000044,-0.0,-0.0,-0.0,-0.0,-0.0,-10.000000000000044,-30.000000000000135,-10.000000000000044,-0.0
-0.0,-0.0,-0.0,-0.0,-0.0,-0.0,-0.0,-10.000000000000044,-20.00000000000009,-30.000000000000135,-10.000000000000044,-0.0
-0.0,-0.0,-0.0,-0.0,-0.0,-0.0,-0.0,-10.000000000000044,-20.00000000000009,-30.000000000000135,-10.000000000000044,-0.0
-10.000000000000044,-0.0,-0.0,-0.0,-0.0,-0.0,-0.0,-10.000000000000044,-10.000000000000044,-30.000000000000135,-10.000000000000044,-0.0
-20.00000000000009,-10.000000000000044,-0.0,10.000000000000044,-0.0,-10.000000000000044,-0.0,-0.0,-10.000000000000044,-20.00000000000009,-10.000000000000044,-0.0
-20.00000000000009,-20.00000000000009,-0.0,20.00000000000009,-10.000000000000044,-10.000000000000044,-0.0,-0.0,-10.000000000000044,-20.00000000000009,-0.0,-0.0
-20.00000000000009,-30.000000000000135,-10.000000000000044,20.00000000000009,-0.0,-20.00000000000009,-0.0,-0.0,-10.000000000000044,-20.00000000000009,-0.0,-0.0
-10.000000000000044,-30.000000000000135,-20.00000000000009,20.00000000000009,-0.0,-20.00000000000009,-0.0,-0.0,-20.00000000000009,-30.000000000000135,-10.000000000000044,-0.0
-0.0,-30.000000000000135,-20.00000000000009,10.000000000000044,-0.0,-20.00000000000009,-10.000000000000044,-0.0,-30.000000000000135,-40.00000000000018,-10.000000000000044,-0.0
-0.0,-30.000000000000135,-30.000000000000135,-0.0,10.000000000000044,-20.00000000000009,-20.00000000000009,-10.000000000000044,-40.00000000000018,-40.00000000000018,-20.00000000000009,-10.000000000000044
-0.0,-20.00000000000009,-30.000000000000135,-0.0,10.000000000000044,-20.00000000000009,-20.00000000000009,-20.00000000000009,-40.00000000000018,-40.00000000000018,-30.000000000000135,-20.00000000000009
-0.0,-20.00000000000009,-20.00000000000009,-0.0,-0.0,-10.000000000000044,-20.00000000000009,-30.000000000000135,-30.000000000000135,-30.000000000000135,-30.000000000000135,-20.00000000000009
-10.000000000000044,-10.000000000000044,-0.0,-0.0,-0.0,-10.000000000000044,-20.00000000000009,-20.00000000000009,-30.000000000000135,-20.00000000000009,-20.00000000000009,-20.00000000000009
-20.00000000000009,-10.000000000000044,-0.0,10.000000000000044,-10.000000000000044,-0.0,-10.000000000000044,-20.00000000000009,-20.00000000000009,-0.0,-20.00000000000009,-10.000000000000044
-40.00000000000018,-20.00000000000009,-0.0,30.000000000000135,-20.00000000000009,-0.0,-0.0,-10.000000000000044,-10.000000000000044,-0.0,-10.000000000000044,-0.0
-40.00000000000018,-30.000000000000135,-0.0,30.000000000000135,-20.00000000000009,-10.000000000000044,10.000000000000044,-0.0,-0.0,-0.0,-0.0,-0.0
-40.00000000000018,-30.000000000000135,-0.0,30.000000000000135,-20.00000000000009,-10.000000000000044,20.00000000000009,-0.0,-0.0,10.000000000000044,-0.0,-0.0
-20.00000000000009,-30.000000000000135,-10.000000000000044,20.00000000000009,-10.000000000000044,-20.00000000000009,20.00000000000009,-0.0,-0.0,10.000000000000044,-0.0,-0.0
-10.000000000000044,-30.000000000000135,-20.00000000000009,10.000000000000044,-0.0,-20.00000000000009,20.00000000000009,-0.0,-0.0,10.000000000000044,-0.0,-0.0
-0.0,-30.000000000000135,-30.000000000000135,-0.0,10.000000000000044,-20.00000000000009,20.00000000000009,-0.0,10.000000000000044,10.000000000000044,-0.0,-0.0
-0.0,-20.00000000000009,-30.000000000000135,-0.0,10.000000000000044,-20.00000000000009,20.00000000000009,-0.0,10.000000000000044,20.00000000000009,-0.0,-0.0
-0.0,-20.00000000000009,-20.00000000000009,-0.0,10.000000000000044,-20.00000000000009,20.00000000000009,-0.0,20.00000000000009,20.00000000000009,-0.0,-0.0
-10.000000000000044,-20.00000000000009,-20.00000000000009,10.000000000000044,-0.0,-20.00000000000009,30.000000000000135,-0.0,20.00000000000009,30.000000000000135,-0.0,-0.0
-20.00000000000009,-30.000000000000135,-10.000000000000044,20.00000000000009,-0.0,-20.00000000000009,40.00000000000018,-0.0,30.000000000000135,30.000000000000135,10.000000000000044,10.000000000000044
-20.00000000000009,-30.000000000000135,-10.000000000000044,20.00000000000009,-0.0,-20.00000000000009,30.000000000000135,-0.0,30.000000000000135,40.00000000000018,20.00000000000009,10.000000000000044
-20.00000000000009,-30.000000000000135,-0.0,20.00000000000009,-0.0,-10.000000000000044,30.000000000000135,-0.0,30.000000000000135,30.000000000000135,20.00000000000009,20.00000000000009
-10.000000000000044,-30.000000000000135,-0.0,10.000000000000044,-0.0,-10.000000000000044,10.000000000000044,-0.0,20.00000000000009,20.00000000000009,30.000000000000135,30.000000000000135
-0.0,-20.00000000000009,-0.0,-0.0,-0.0,-0.0,-0.0,-10.000000000000044,10.000000000000044,10.000000000000044,30.000000000000135,30.000000000000135
-0.0,-0.0,-0.0,-0.0,-0.0,-0.0,-10.000000000000044,-20.00000000000009,-0.0,10.000000000000044,20.00000000000009,30.000000000000135
-0.0,-0.0,10.000000000000044,-10.000000000000044,-0.0,10.000000000000044,-30.000000000000135,-30.000000000000135,-0.0,-0.0,20.00000000000009,30.000000000000135
-0.0,10.000000000000044,20.00000000000009,-10.000000000000044,-20.00000000000009,20.00000000000009,-40.00000000000018,-30.000000000000135,-0.0,-0.0,20.00000000000009,30.000000000000135
-10.000000000000044,20.00000000000009,40.00000000000018,-10.000000000000044,-30.000000000000135,40.00000000000018,-50.00000000000022,-30.000000000000135,-0.0,-0.0,20.00000000000009,40.00000000000018
-10.000000000000044,30.000000000000135,60.00000000000027,-10.000000000000044,-40.00000000000018,50.00000000000022,-60.00000000000027,-30.000000000000135,-0.0,-0.0,20.00000000000009,40.00000000000018
-10.000000000000044,50.00000000000022,70.00000000000031,-20.00000000000009,-40.00000000000018,60.00000000000027,-60.00000000000027,-30.000000000000135,-0.0,-0.0,20.00000000000009,40.00000000000018
-10.000000000000044,60.00000000000027,80.00000000000036,-30.000000000000135,-40.00000000000018,70.00000000000031,-60.00000000000027,-20.00000000000009,-10.000000000000044,-0.0,10.000000000000044,30.000000000000135
-0.0,60.00000000000027,70.00000000000031,-30.000000000000135,-40.00000000000018,70.00000000000031,-70.00000000000031,-20.00000000000009,-20.00000000000009,-20.00000000000009,-0.0,20.00000000000009
-0.0,70.00000000000031,60.00000000000027,-40.00000000000018,-30.000000000000135,70.00000000000031,-70.00000000000031,-30.000000000000135,-30.000000000000135,-30.000000000000135,-0.0,10.000000000000044
10.000000000000044,70.00000000000031,50.00000000000022,-50.00000000000022,-20.00000000000009,60.00000000000027,-70.00000000000031,-40.00000000000018,-40.00000000000018,-40.00000000000018,-10.000000000000044,-0.0
20.00000000000009,70.00000000000031,50.00000000000022,-50.00000000000022,-10.000000000000044,60.00000000000027,-60.00000000000027,-40.00000000000018,-50.00000000000022,-50.00000000000022,-20.00000000000009,-0.0
20.00000000000009,80.00000000000036,50.00000000000022,-50.00000000000022,-10.000000000000044,70.00000000000031,-60.00000000000027,-50.00000000000022,-60.00000000000027,-60.00000000000027,-30.000000000000135,-10.000000000000044
20.00000000000009,80.00000000000036,60.00000000000027,-50.00000000000022,-10.000000000000044,70.00000000000031,-50.00000000000022,-60.00000000000027,-60.00000000000027,-60.00000000000027,-40.00000000000018,-10.000000000000044
20.00000000000009,90.0000000000004,60.00000000000027,-50.00000000000022,-10.000000000000044,70.00000000000031,-50.00000000000022,-70.00000000000031,-60.00000000000027,-60.00000000000027,-40.00000000000018,-10.000000000000044
20.00000000000009,90.0000000000004,60.00000000000027,-50.00000000000022,-10.000000000000044,70.00000000000031,-50.00000000000022,-70.00000000000031,-60.00000000000027,-60.00000000000027,-40.00000000000018,-10.000000000000044
20.00000000000009,80.00000000000036,50.00000000000022,-50.00000000000022,-10.000000000000044,60.00000000000027,-50.00000000000022,-70.00000000000031,-60.00000000000027,-60.00000000000027,-40.00000000000018,-10.000000000000044
20.00000000000009,80.00000000000036,40.00000000000018,-50.00000000000022,-10.000000000000044,50.00000000000022,-50.00000000000022,-70.00000000000031,-60.00000000000027,-60.00000000000027,-40.00000000000018,-10.000000000000044
20.00000000000009,70.00000000000031,20.00000000000009,-40.00000000000018,-0.0,40.00000000000018,-50.00000000000022,-60.00000000000027,-60.00000000000027,-50.00000000000022,-40.00000000000018,-0.0
20.00000000000009,50.00000000000022,10.000000000000044,-30.000000000000135,-0.0,20.00000000000009,-60.00000000000027,-60.00000000000027,-60.00000000000027,-50.00000000000022,-30.000000000000135,-0.0
10.000000000000044,40.00000000000018,-0.0,-20.00000000000009,-0.0,10.000000000000044,-60.00000000000027,-60.00000000000027,-60.00000000000027,-60.00000000000027,-30.000000000000135,-0.0
-0.0,20.00000000000009,-0.0,-0.0,-0.0,-0.0,-60.00000000000027,-70.00000000000031,-70.00000000000031,-70.00000000000031,-40.00000000000018,-10.000000000000044
-10.000000000000044,-0.0,-0.0,10.000000000000044,-0.0,-10.000000000000044,-70.00000000000031,-70.00000000000031,-80.00000000000036,-80.00000000000036,-50.00000000000022,-20.00000000000009
-30.000000000000135,-20.00000000000009,-0.0,30.000000000000135,-10.000000000000044,-20.00000000000009,-70.00000000000031,-60.00000000000027,-60.00000000000027,-80.00000000000036,-70.00000000000031,-40.00000000000018
-40.00000000000018,-40.00000000000018,-10.000000000000044,40.00000000000018,-10.000000000000044,-30.000000000000135,-60.00000000000027,-30.000000000000135,-30.000000000000135,-60.00000000000027,-90.0000000000004,-60.00000000000027
-40.00000000000018,-50.00000000000022,-10.000000000000044,40.00000000000018,-10.000000000000044,-30.000000000000135,-30.000000000000135,10.000000000000044,30.000000000000135,-0.0,-90.0000000000004,-70.00000000000031
-30.000000000000135,-50.00000000000022,-20.00000000000009,40.00000000000018,-0.0,-40.00000000000018,-10.000000000000044,80.00000000000036,120.00000000000054,110.00000000000048,-70.00000000000031,-60.00000000000027
-20.00000000000009,-60.00000000000027,-30.000000000000135,30.000000000000135,-0.0,-40.00000000000018,-0.0,140.00000000000063,230.00000000000102,250.0000000000011,-0.0,-0.0
-10.000000000000044,-50.00000000000022,-40.00000000000018,30.000000000000135,10.000000000000044,-40.00000000000018,-0.0,190.00000000000085,350.00000000000153,430.00000000000193,130.00000000000057,100.00000000000044
-10.000000000000044,-50.00000000000022,-40.00000000000018,30.000000000000135,10.000000000000044,-40.00000000000018,-30.000000000000135,160.0000000000007,450.000000000002,610.0000000000027,330.0000000000015,270.0000000000012
-20.00000000000009,-50.00000000000022,-40.00000000000018,30.000000000000135,-0.0,-50.00000000000022,-100.00000000000044,50.00000000000022,500.0000000000022,750.0000000000033,560.0000000000025,470.0000000000021
-30.000000000000135,-60.00000000000027,-30.000000000000135,40.00000000000018,-0.0,-50.00000000000022,-190.00000000000085,-150.00000000000065,450.000000000002,810.0000000000036,790.0000000000035,690.0000000000031
-30.000000000000135,-60.00000000000027,-30.000000000000135,50.00000000000022,-0.0,-50.00000000000022,-300.0000000000013,-430.00000000000193,330.0000000000015,720.0000000000032,970.0000000000043,870.0000000000039
-30.000000000000135,-70.00000000000031,-40.00000000000018,50.00000000000022,-0.0,-60.00000000000027,-410.0000000000018,-760.0000000000034,130.00000000000057,520.0000000000023,1040.0000000000045,970.0000000000043
-30.000000000000135,-80.00000000000036,-60.00000000000027,60.00000000000027,-0.0,-70.00000000000031,-500.0000000000022,-1080.0000000000048,-130.00000000000057,210.00000000000094,950.0000000000042,930.0000000000041
-20.00000000000009,-90.0000000000004,-80.00000000000036,60.00000000000027,20.00000000000009,-90.0000000000004,-570.0000000000025,-1340.000000000006,-410.0000000000018,-140.00000000000063,750.0000000000033,790.0000000000035
-10.000000000000044,-100.00000000000044,-90.0000000000004,60.00000000000027,30.000000000000135,-100.00000000000044,-610.0000000000027,-1520.0000000000068,-650.0000000000028,-460.00000000000205,460.00000000000205,570.0000000000025
-0.0,-110.00000000000048,-90.0000000000004,30.000000000000135,40.00000000000018,-80.00000000000036,-610.0000000000027,-1600.000000000007,-810.0000000000036,-690.0000000000031,160.0000000000007,320.0000000000014
30.000000000000135,-80.00000000000036,-50.00000000000022,-10.000000000000044,40.00000000000018,-30.000000000000135,-590.0000000000026,-1560.0000000000068,-870.0000000000039,-800.0000000000035,-100.00000000000044,80.00000000000036
70.00000000000031,-20.00000000000009,30.000000000000135,-90.0000000000004,20.00000000000009,60.00000000000027,-560.0000000000025,-1440.0000000000064,-820.0000000000036,-780.0000000000034,-260.00000000000114,-80.00000000000036
120.00000000000054,100.00000000000044,150.00000000000065,-200.00000000000088,-20.00000000000009,210.00000000000094,-510.0000000000023,-1250.0000000000055,-700.0000000000031,-670.000000000003,-330.0000000000015,-160.0000000000007
160.0000000000007,270.0000000000012,310.00000000000136,-330.0000000000015,-80.00000000000036,390.0000000000017,-440.00000000000193,-1020.0000000000045,-550.0000000000024,-530.0000000000024,-320.0000000000014,-190.00000000000085
180.0000000000008,480.00000000000216,490.00000000000216,-430.00000000000193,-160.0000000000007,580.0000000000026,-360.0000000000016,-800.0000000000035,-410.0000000000018,-400.00000000000176,-260.00000000000114,-160.0000000000007
170.00000000000077,680.0000000000031,660.000000000003,-500.0000000000022,-240.00000000000108,740.0000000000033,-280.00000000000125,-610.0000000000027,-290.0000000000013,-300.0000000000013,-200.00000000000088,-120.00000000000054
110.00000000000048,830.0000000000036,780.0000000000034,-510.0000000000023,-330.0000000000015,830.0000000000036,-200.00000000000088,-450.000000000002,-210.00000000000094,-230.00000000000102,-150.00000000000065,-90.0000000000004
30.000000000000135,900.000000000004,830.0000000000036,-460.00000000000205,-400.00000000000176,850.0000000000038,-140.00000000000063,-330.0000000000015,-170.00000000000077,-190.00000000000085,-120.00000000000054,-70.00000000000031
-60.00000000000027,870.0000000000039,820.0000000000036,-350.00000000000153,-440.00000000000193,790.0000000000035,-90.0000000000004,-240.00000000000108,-160.0000000000007,-160.0000000000007,-110.00000000000048,-60.00000000000027
-150.00000000000065,760.0000000000034,760.0000000000034,-220.00000000000097,-460.00000000000205,680.0000000000031,-70.00000000000031,-180.0000000000008,-150.00000000000065,-140.00000000000063,-100.00000000000044,-60.00000000000027
-220.00000000000097,610.0000000000027,650.0000000000028,-100.00000000000044,-440.00000000000193,550.0000000000024,-50.00000000000022,-140.00000000000063,-140.00000000000063,-130.00000000000057,-100.00000000000044,-60.00000000000027
-260.00000000000114,430.00000000000193,540.0000000000024,-20.00000000000009,-400.00000000000176,410.0000000000018,-40.00000000000018,-110.00000000000048,-130.00000000000057,-110.00000000000048,-100.00000000000044,-60.00000000000027
-260.00000000000114,280.00000000000125,430.00000000000193,30.000000000000135,-350.00000000000153,290.0000000000013,-40.00000000000018,-90.0000000000004,-120.00000000000054,-100.00000000000044,-90.0000000000004,-60.00000000000027
-230.00000000000102,170.00000000000077,330.0000000000015,60.00000000000027,-280.00000000000125,210.00000000000094,-30.000000000000135,-70.00000000000031,-100.00000000000044,-90.0000000000004,-80.00000000000036,-50.00000000000022
-190.00000000000085,90.0000000000004,250.0000000000011,60.00000000000027,-220.00000000000097,150.00000000000065,-20.00000000000009,-50.00000000000022,-90.0000000000004,-80.00000000000036,-70.00000000000031,-50.00000000000022
-150.00000000000065,50.00000000000022,190.00000000000085,50.00000000000022,-170.00000000000077,110.00000000000048,-10.000000000000044,-30.000000000000135,-80.00000000000036,-60.00000000000027,-70.00000000000031,-40.00000000000018
-110.00000000000048,30.000000000000135,130.00000000000057,40.00000000000018,-130.00000000000057,70.00000000000031,-0.0,-10.000000000000044,-70.00000000000031,-60.00000000000027,-60.00000000000027,-40.00000000000018
-90.0000000000004,10.000000000000044,80.00000000000036,40.00000000000018,-90.0000000000004,40.00000000000018,-0.0,-0.0,-60.00000000000027,-50.00000000000022,-50.00000000000022,-30.000000000000135
-80.00000000000036,-0.0,50.00000000000022,40.00000000000018,-70.00000000000031,10.000000000000044,-0.0,-0.0,-50.00000000000022,-40.00000000000018,-50.00000000000022,-30.000000000000135
-60.00000000000027,-20.00000000000009,20.00000000000009,50.00000000000022,-40.00000000000018,-10.000000000000044,-0.0,10.000000000000044,-50.00000000000022,-40.00000000000018,-50.00000000000022,-30.000000000000135
-50.00000000000022,-40.00000000000018,-10.000000000000044,50.00000000000022,-20.00000000000009,-30.000000000000135,-0.0,10.000000000000044,-50.00000000000022,-30.000000000000135,-40.00000000000018,-30.000000000000135
-40.00000000000018,-60.00000000000027,-30.000000000000135,60.00000000000027,-10.000000000000044,-50.00000000000022,-0.0,20.00000000000009,-50.00000000000022,-30.000000000000135,-40.00000000000018,-30.000000000000135
-40.00000000000018,-70.00000000000031,-40.00000000000018,60.00000000000027,-0.0,-60.00000000000027,-0.0,30.000000000000135,-50.00000000000022,-40.00000000000018,-50.00000000000022,-30.000000000000135
-30.000000000000135,-80.00000000000036,-40.00000000000018,60.00000000000027,-0.0,-60.00000000000027,-10.000000000000044,20.00000000000009,-50.00000000000022,-40.00000000000018,-50.00000000000022,-40.00000000000018
-40.00000000000018,-80.00000000000036,-40.00000000000018,60.00000000000027,-0.0,-60.00000000000027,-20.00000000000009,10.000000000000044,-60.00000000000027,-50.00000000000022,-60.00000000000027,-40.00000000000018
-40.00000000000018,-80.00000000000036,-30.000000000000135,60.00000000000027,-0.0,-50.00000000000022,-20.00000000000009,10.000000000000044,-60.00000000000027,-50.00000000000022,-60.00000000000027,-40.00000000000018
-40.00000000000018,-70.00000000000031,-20.00000000000009,50.00000000000022,-0.0,-40.00000000000018,-20.00000000000009,10.000000000000044,-50.00000000000022,-40.00000000000018,-60.00000000000027,-40.00000000000018
-40.00000000000018,-70.00000000000031,-20.00000000000009,50.00000000000022,-0.0,-40.00000000000018,-20.00000000000009,10.000000000000044,-40.00000000000018,-30.000000000000135,-50.00000000000022,-30.000000000000135
-30.000000000000135,-70.00000000000031,-30.000000000000135,50.00000000000022,-0.0,-50.00000000000022,-10.000000000000044,30.000000000000135,-20.00000000000009,-20.00000000000009,-40.00000000000018,-20.00000000000009
-20.00000000000009,-70.00000000000031,-40.00000000000018,40.00000000000018,-0.0,-60.00000000000027,-0.0,40.00000000000018,-0.0,-10.000000000000044,-20.00000000000009,-0.0
