I,II,III,aVR,aVL,aVF,V1,V2,V3,V4,V5,V6
80.00000000000036,140.00000000000063,60.00000000000027,-110.00000000000048,-0.0,100.00000000000044,-0.0,-0.0,-90.0000000000004,-70.00000000000031,-0.0,-0.0
80.00000000000036,150.00000000000065,60.00000000000027,-110.00000000000048,-0.0,100.00000000000044,-60.00000000000027,-100.00000000000044,-100.00000000000044,-70.00000000000031,-40.00000000000018,-20.00000000000009
90.0000000000004,150.00000000000065,60.00000000000027,-120.00000000000054,10.000000000000044,100.00000000000044,-60.00000000000027,-100.00000000000044,-100.00000000000044,-80.00000000000036,-40.00000000000018,-30.000000000000135
90.0000000000004,150.00000000000065,60.00000000000027,-110.00000000000048,10.000000000000044,100.00000000000044,-60.00000000000027,-110.00000000000048,-110.00000000000048,-80.00000000000036,-40.00000000000018,-30.000000000000135
90.0000000000004,150.00000000000065,50.00000000000022,-110.00000000000048,10.000000000000044,100.00000000000044,-60.00000000000027,-110.00000000000048,-120.00000000000054,-80.00000000000036,-50.00000000000022,-30.000000000000135
90.0000000000004,140.00000000000063,50.00000000000022,-110.00000000000048,10.000000000000044,100.00000000000044,-60.00000000000027,-110.00000000000048,-120.00000000000054,-80.00000000000036,-50.00000000000022,-30.000000000000135
90.0000000000004,140.00000000000063,50.00000000000022,-110.00000000000048,10.000000000000044,90.0000000000004,-60.00000000000027,-110.00000000000048,-130.00000000000057,-80.00000000000036,-50.00000000000022,-40.00000000000018
80.00000000000036,140.00000000000063,40.00000000000018,-110.00000000000048,10.000000000000044,90.0000000000004,-50.00000000000022,-110.00000000000048,-130.00000000000057,-80.00000000000036,-50.00000000000022,-40.00000000000018
80.00000000000036,130.00000000000057,40.00000000000018,-100.00000000000044,10.000000000000044,80.00000000000036,-60.00000000000027,-110.00000000000048,-140.00000000000063,-80.00000000000036,-50.00000000000022,-40.00000000000018
80.00000000000036,120.00000000000054,30.000000000000135,-100.00000000000044,20.00000000000009,70.00000000000031,-60.00000000000027,-110.00000000000048,-180.0000000000008,-180.0000000000008,-50.00000000000022,-40.00000000000018
70.00000000000031,110.00000000000048,20.00000000000009,-90.0000000000004,20.00000000000009,60.00000000000027,-180.0000000000008,-180.0000000000008,-190.00000000000085,-190.00000000000085,-180.0000000000008,-180.0000000000008
70.00000000000031,100.00000000000044,10.000000000000044,-80.00000000000036,20.00000000000009,50.00000000000022,-190.00000000000085,-190.00000000000085,-210.00000000000094,-210.00000000000094,-190.00000000000085,-190.00000000000085
70.00000000000031,90.0000000000004,-0.0,-70.00000000000031,30.000000000000135,40.00000000000018,-210.00000000000094,-210.00000000000094,-220.00000000000097,-220.00000000000097,-210.00000000000094,-210.00000000000094
60.00000000000027,70.00000000000031,-0.0,-70.00000000000031,30.000000000000135,20.00000000000009,-220.00000000000097,-220.00000000000097,-240.00000000000108,-240.00000000000108,-220.00000000000097,-220.00000000000097
60.00000000000027,60.00000000000027,-0.0,-60.00000000000027,30.000000000000135,20.00000000000009,-240.00000000000108,-240.00000000000108,-260.00000000000114,-260.00000000000114,-240.00000000000108,-240.00000000000108
60.00000000000027,50.00000000000022,-10.000000000000044,-50.00000000000022,30.000000000000135,10.000000000000044,-260.00000000000114,-260.00000000000114,-290.0000000000013,-290.0000000000013,-260.00000000000114,-260.00000000000114
50.00000000000022,40.00000000000018,-10.000000000000044,-40.00000000000018,30.000000000000135,-0.0,-290.0000000000013,-290.0000000000013,-320.0000000000014,-320.0000000000014,-290.0000000000013,-290.0000000000013
40.00000000000018,30.000000000000135,-10.000000000000044,-40.00000000000018,30.000000000000135,-0.0,-320.0000000000014,-320.0000000000014,-350.00000000000153,-350.00000000000153,-320.0000000000014,-320.0000000000014
30.000000000000135,20.00000000000009,-10.000000000000044,-30.000000000000135,20.00000000000009,-0.0,-350.00000000000153,-350.00000000000153,-360.0000000000016,-360.0000000000016,-350.00000000000153,-350.00000000000153
20.00000000000009,20.00000000000009,-10.000000000000044,-20.00000000000009,10.000000000000044,-0.0,-360.0000000000016,-360.0000000000016,-380.0000000000017,-380.0000000000017,-360.0000000000016,-360.0000000000016
10.000000000000044,10.000000000000044,-0.0,-10.000000000000044,10.000000000000044,-0.0,-380.0000000000017,-380.0000000000017,-400.00000000000176,-400.00000000000176,-380.0000000000017,-380.0000000000017
10.000000000000044,10.000000000000044,-0.0,-10.000000000000044,-0.0,-0.0,-400.00000000000176,-400.00000000000176,-380.0000000000017,-380.0000000000017,-400.00000000000176,-400.00000000000176
-0.0,-0.0,-0.0,-0.0,-0.0,-0.0,-380.0000000000017,-380.0000000000017,-360.0000000000016,-360.0000000000016,-380.0000000000017,-380.0000000000017
-0.0,-0.0,-0.0,-0.0,-0.0,-0.0,-330.0000000000015,-360.0000000000016,-350.00000000000153,-350.00000000000153,-360.0000000000016,-360.0000000000016
-0.0,-0.0,-0.0,-0.0,-0.0,-0.0,-350.00000000000153,-350.00000000000153,-320.0000000000014,-320.0000000000014,-350.00000000000153,-350.00000000000153
-0.0,-0.0,-0.0,-0.0,-0.0,-0.0,-320.0000000000014,-260.00000000000114,-290.0000000000013,-290.0000000000013,-320.0000000000014,-320.0000000000014
-0.0,-10.000000000000044,-0.0,-0.0,-0.0,-0.0,-290.0000000000013,-340.00000000000153,-260.00000000000114,-260.00000000000114,-290.0000000000013,-290.0000000000013
-0.0,-10.000000000000044,-0.0,-0.0,-0.0,-0.0,-260.00000000000114,-260.00000000000114,-240.00000000000108,-180.0000000000008,-260.00000000000114,-260.00000000000114
-0.0,-10.000000000000044,-0.0,-0.0,-0.0,-0.0,-240.00000000000108,-240.00000000000108,-220.00000000000097,-280.00000000000125,-240.00000000000108,-240.00000000000108
-0.0,-10.000000000000044,-0.0,-0.0,-0.0,-0.0,-220.00000000000097,-220.00000000000097,-210.00000000000094,-210.00000000000094,-170.00000000000077,-220.00000000000097
-0.0,-10.000000000000044,-0.0,-0.0,-0.0,-0.0,-210.00000000000094,-210.00000000000094,-190.00000000000085,-190.00000000000085,-210.00000000000094,-210.00000000000094
-0.0,-10.000000000000044,-0.0,-0.0,-0.0,-0.0,-190.00000000000085,-190.00000000000085,-180.0000000000008,-180.0000000000008,-270.0000000000012,-190.00000000000085
-0.0,-0.0,-0.0,-0.0,-0.0,-0.0,-180.0000000000008,-180.0000000000008,-540.0000000000024,-340.00000000000153,-290.0000000000013,-180.0000000000008
-0.0,-0.0,-0.0,-0.0,-0.0,-0.0,-230.00000000000102,-530.0000000000024,-440.00000000000193,-360.0000000000016,-270.0000000000012,-160.0000000000007
-0.0,-0.0,-0.0,-0.0,-0.0,-0.0,-160.0000000000007,-400.00000000000176,-330.0000000000015,-310.00000000000136,-240.00000000000108,-160.0000000000007
-0.0,-0.0,-0.0,-0.0,-0.0,-0.0,-100.00000000000044,-280.00000000000125,-220.00000000000097,-210.00000000000094,-200.00000000000088,-150.00000000000065
-0.0,-0.0,-0.0,-0.0,-0.0,-0.0,-50.00000000000022,-190.00000000000085,-170.00000000000077,-150.00000000000065,-160.0000000000007,-120.00000000000054
-10.000000000000044,-0.0,-0.0,-0.0,-0.0,-0.0,-10.000000000000044,-90.0000000000004,-80.00000000000036,-100.00000000000044,-120.00000000000054,-100.00000000000044
-10.000000000000044,-0.0,-0.0,-0.0,-0.0,-0.0,-0.0,-30.000000000000135,-40.00000000000018,-80.00000000000036,-100.00000000000044,-90.0000000000004
-10.000000000000044,-0.0,-0.0,10.000000000000044,-10.000000000000044,-0.0,20.00000000000009,-0.0,-20.00000000000009,-60.00000000000027,-90.0000000000004,-80.00000000000036
-20.00000000000009,-0.0,10.000000000000044,10.000000000000044,-20.00000000000009,-0.0,30.000000000000135,20.00000000000009,-10.000000000000044,-50.00000000000022,-80.00000000000036,-80.00000000000036
-30.000000000000135,-0.0,10.000000000000044,10.000000000000044,-20.00000000000009,-0.0,40.00000000000018,40.00000000000018,-0.0,-50.00000000000022,-80.00000000000036,-70.00000000000031
-30.000000000000135,-0.0,20.00000000000009,20.00000000000009,-20.00000000000009,-0.0,40.00000000000018,50.00000000000022,-0.0,-40.00000000000018,-80.00000000000036,-70.00000000000031
-30.000000000000135,-0.0,20.00000000000009,20.00000000000009,-30.000000000000135,-0.0,50.00000000000022,70.00000000000031,-0.0,-40.00000000000018,-70.00000000000031,-70.00000000000031
-30.000000000000135,-0.0,20.00000000000009,20.00000000000009,-30.000000000000135,-0.0,50.00000000000022,70.00000000000031,10.000000000000044,-30.000000000000135,-70.00000000000031,-70.00000000000031
-30.000000000000135,-0.0,20.00000000000009,20.00000000000009,-30.000000000000135,-0.0,50.00000000000022,80.00000000000036,20.00000000000009,-20.00000000000009,-60.00000000000027,-60.00000000000027
-30.000000000000135,-10.000000000000044,20.00000000000009,20.00000000000009,-30.000000000000135,-0.0,60.00000000000027,100.00000000000044,30.000000000000135,-20.00000000000009,-60.00000000000027,-60.00000000000027
-30.000000000000135,-10.000000000000044,10.000000000000044,20.00000000000009,-20.00000000000009,-0.0,60.00000000000027,110.00000000000048,40.00000000000018,-10.000000000000044,-60.00000000000027,-50.00000000000022
-30.000000000000135,-10.000000000000044,10.000000000000044,20.00000000000009,-20.00000000000009,-0.0,60.00000000000027,120.00000000000054,50.00000000000022,-10.000000000000044,-50.00000000000022,-50.00000000000022
-20.00000000000009,-10.000000000000044,10.000000000000044,20.00000000000009,-20.00000000000009,-0.0,70.00000000000031,130.00000000000057,50.00000000000022,-0.0,-50.00000000000022,-40.00000000000018
-20.00000000000009,-10.000000000000044,10.000000000000044,10.000000000000044,-20.00000000000009,-0.0,70.00000000000031,140.00000000000063,60.00000000000027,-0.0,-40.00000000000018,-40.00000000000018
-20.00000000000009,-10.000000000000044,10.000000000000044,10.000000000000044,-10.000000000000044,-0.0,70.00000000000031,150.00000000000065,70.00000000000031,-0.0,-40.00000000000018,-40.00000000000018
-20.00000000000009,-10.000000000000044,10.000000000000044,10.000000000000044,-20.00000000000009,-0.0,80.00000000000036,160.0000000000007,80.00000000000036,10.000000000000044,-40.00000000000018,-30.000000000000135
-20.00000000000009,-10.000000000000044,10.000000000000044,10.000000000000044,-10.000000000000044,-0.0,80.00000000000036,170.00000000000077,90.0000000000004,10.000000000000044,-30.000000000000135,-30.000000000000135
-20.00000000000009,-0.0,10.000000000000044,10.000000000000044,-10.000000000000044,-0.0,80.00000000000036,190.00000000000085,100.00000000000044,20.00000000000009,-30.000000000000135,-20.00000000000009
-10.000000000000044,-0.0,10.000000000000044,-0.0,-10.000000000000044,-0.0,90.0000000000004,200.00000000000088,110.00000000000048,20.00000000000009,-20.00000000000009,-20.00000000000009
-10.000000000000044,-0.0,10.000000000000044,-0.0,-10.000000000000044,-0.0,90.0000000000004,210.00000000000094,120.00000000000054,30.000000000000135,-20.00000000000009,-20.00000000000009
-10.000000000000044,-0.0,10.000000000000044,-0.0,-10.000000000000044,-0.0,100.00000000000044,220.00000000000097,130.00000000000057,40.00000000000018,-20.00000000000009,-10.000000000000044
-10.000000000000044,-0.0,10.000000000000044,-0.0,-10.000000000000044,-0.0,100.00000000000044,240.00000000000108,150.00000000000065,50.00000000000022,-10.000000000000044,-10.000000000000044
-0.0,-0.0,10.000000000000044,-0.0,-10.000000000000044,10.000000000000044,110.00000000000048,250.0000000000011,170.00000000000077,60.00000000000027,-0.0,-0.0
-0.0,-0.0,20.00000000000009,-0.0,-10.000000000000044,20.00000000000009,120.00000000000054,270.0000000000012,180.0000000000008,70.00000000000031,-0.0,-0.0
-0.0,10.000000000000044,20.00000000000009,-0.0,-10.000000000000044,20.00000000000009,120.00000000000054,290.0000000000013,200.00000000000088,80.00000000000036,-0.0,-0.0
-0.0,20.00000000000009,30.000000000000135,-10.000000000000044,-20.00000000000009,30.000000000000135,130.00000000000057,310.00000000000136,220.00000000000097,100.00000000000044,10.000000000000044,-0.0
-0.0,30.000000000000135,40.00000000000018,-20.00000000000009,-20.00000000000009,40.00000000000018,140.00000000000063,340.00000000000153,230.00000000000102,110.00000000000048,10.000000000000044,-0.0
-0.0,40.00000000000018,50.00000000000022,-20.00000000000009,-30.000000000000135,50.00000000000022,140.00000000000063,360.0000000000016,250.0000000000011,120.00000000000054,20.00000000000009,-0.0
-0.0,50.00000000000022,60.00000000000027,-30.000000000000135,-30.000000000000135,60.00000000000027,150.00000000000065,380.0000000000017,270.0000000000012,130.00000000000057,30.000000000000135,-0.0
-0.0,60.00000000000027,70.00000000000031,-30.000000000000135,-30.000000000000135,70.00000000000031,160.0000000000007,410.0000000000018,290.0000000000013,140.00000000000063,40.00000000000018,10.000000000000044
-0.0,70.00000000000031,80.00000000000036,-40.00000000000018,-30.000000000000135,80.00000000000036,170.00000000000077,430.00000000000193,310.00000000000136,160.0000000000007,40.00000000000018,10.000000000000044
-0.0,80.00000000000036,80.00000000000036,-50.00000000000022,-30.000000000000135,80.00000000000036,180.0000000000008,450.000000000002,330.0000000000015,170.00000000000077,50.00000000000022,20.00000000000009
10.000000000000044,90.0000000000004,80.00000000000036,-60.00000000000027,-30.000000000000135,90.0000000000004,200.00000000000088,480.00000000000216,340.00000000000153,180.0000000000008,60.00000000000027,20.00000000000009
20.00000000000009,100.00000000000044,80.00000000000036,-60.00000000000027,-30.000000000000135,90.0000000000004,210.00000000000094,500.0000000000022,360.0000000000016,190.00000000000085,60.00000000000027,30.000000000000135
20.00000000000009,100.00000000000044,80.00000000000036,-70.00000000000031,-20.00000000000009,90.0000000000004,220.00000000000097,520.0000000000023,380.0000000000017,200.00000000000088,70.00000000000031,30.000000000000135
20.00000000000009,110.00000000000048,80.00000000000036,-70.00000000000031,-20.00000000000009,90.0000000000004,240.00000000000108,540.0000000000024,390.0000000000017,210.00000000000094,70.00000000000031,30.000000000000135
30.000000000000135,110.00000000000048,80.00000000000036,-70.00000000000031,-20.00000000000009,90.0000000000004,250.0000000000011,560.0000000000025,410.0000000000018,220.00000000000097,80.00000000000036,40.00000000000018
30.000000000000135,110.00000000000048,70.00000000000031,-70.00000000000031,-20.00000000000009,90.0000000000004,260.00000000000114,570.0000000000025,420.0000000000019,230.00000000000102,80.00000000000036,40.00000000000018
30.000000000000135,100.00000000000044,60.00000000000027,-70.00000000000031,-10.000000000000044,80.00000000000036,280.00000000000125,580.0000000000026,440.00000000000193,230.00000000000102,80.00000000000036,40.00000000000018
30.000000000000135,100.00000000000044,60.00000000000027,-60.00000000000027,-10.000000000000044,70.00000000000031,290.0000000000013,590.0000000000026,440.00000000000193,240.00000000000108,80.00000000000036,40.00000000000018
30.000000000000135,90.0000000000004,50.00000000000022,-60.00000000000027,-0.0,70.00000000000031,290.0000000000013,600.0000000000026,440.00000000000193,240.00000000000108,80.00000000000036,40.00000000000018
30.000000000000135,90.0000000000004,30.000000000000135,-50.00000000000022,-0.0,50.00000000000022,300.0000000000013,600.0000000000026,440.00000000000193,240.00000000000108,80.00000000000036,40.00000000000018
20.00000000000009,70.00000000000031,20.00000000000009,-40.00000000000018,-0.0,30.000000000000135,290.0000000000013,590.0000000000026,430.00000000000193,230.00000000000102,80.00000000000036,40.00000000000018
10.000000000000044,50.00000000000022,10.000000000000044,-30.000000000000135,-0.0,20.00000000000009,290.0000000000013,570.0000000000025,410.0000000000018,220.00000000000097,80.00000000000036,40.00000000000018
10.000000000000044,30.000000000000135,-0.0,-10.000000000000044,-0.0,-0.0,270.0000000000012,550.0000000000024,390.0000000000017,210.00000000000094,70.00000000000031,40.00000000000018
-0.0,10.000000000000044,-0.0,-0.0,-0.0,-0.0,260.00000000000114,530.0000000000024,370.00000000000165,200.00000000000088,70.00000000000031,40.00000000000018
-0.0,-0.0,-20.00000000000009,-0.0,-0.0,-20.00000000000009,240.00000000000108,490.00000000000216,340.00000000000153,190.00000000000085,70.00000000000031,40.00000000000018
-0.0,-20.00000000000009,-40.00000000000018,10.000000000000044,10.000000000000044,-40.00000000000018,220.00000000000097,450.000000000002,320.0000000000014,180.0000000000008,70.00000000000031,40.00000000000018
-0.0,-40.00000000000018,-50.00000000000022,20.00000000000009,20.00000000000009,-50.00000000000022,200.00000000000088,410.0000000000018,290.0000000000013,160.0000000000007,70.00000000000031,40.00000000000018
-0.0,-60.00000000000027,-70.00000000000031,30.000000000000135,30.000000000000135,-70.00000000000031,180.0000000000008,370.00000000000165,260.00000000000114,150.00000000000065,70.00000000000031,40.00000000000018
-0.0,-70.00000000000031,-80.00000000000036,30.000000000000135,30.000000000000135,-80.00000000000036,150.00000000000065,330.0000000000015,230.00000000000102,140.00000000000063,70.00000000000031,50.00000000000022
-0.0,-80.00000000000036,-80.00000000000036,40.00000000000018,30.000000000000135,-80.00000000000036,130.00000000000057,290.0000000000013,200.00000000000088,120.00000000000054,60.00000000000027,50.00000000000022
-0.0,-90.0000000000004,-80.00000000000036,40.00000000000018,30.000000000000135,-90.0000000000004,110.00000000000048,240.00000000000108,170.00000000000077,110.00000000000048,60.00000000000027,50.00000000000022
-0.0,-90.0000000000004,-90.0000000000004,40.00000000000018,40.00000000000018,-90.0000000000004,90.0000000000004,210.00000000000094,140.00000000000063,90.0000000000004,60.00000000000027,50.00000000000022
-0.0,-90.0000000000004,-90.0000000000004,50.00000000000022,40.00000000000018,-90.0000000000004,70.00000000000031,170.00000000000077,120.00000000000054,80.00000000000036,50.00000000000022,40.00000000000018
-0.0,-90.0000000000004,-90.0000000000004,50.00000000000022,30.000000000000135,-90.0000000000004,60.00000000000027,140.00000000000063,90.0000000000004,60.00000000000027,40.00000000000018,40.00000000000018
-10.000000000000044,-90.0000000000004,-80.00000000000036,50.00000000000022,30.000000000000135,-90.0000000000004,40.00000000000018,110.00000000000048,70.00000000000031,50.00000000000022,40.00000000000018,30.000000000000135
-10.000000000000044,-90.0000000000004,-80.00000000000036,50.00000000000022,30.000000000000135,-90.0000000000004,30.000000000000135,90.0000000000004,60.00000000000027,40.00000000000018,30.000000000000135,20.00000000000009
-10.000000000000044,-100.00000000000044,-80.00000000000036,50.00000000000022,30.000000000000135,-90.0000000000004,20.00000000000009,70.00000000000031,50.00000000000022,30.000000000000135,20.00000000000009,20.00000000000009
-20.00000000000009,-100.00000000000044,-80.00000000000036,50.00000000000022,20.00000000000009,-90.0000000000004,20.00000000000009,50.00000000000022,30.000000000000135,20.00000000000009,10.000000000000044,10.000000000000044
-20.00000000000009,-100.00000000000044,-70.00000000000031,60.00000000000027,10.000000000000044,-80.00000000000036,10.000000000000044,40.00000000000018,30.000000000000135,20.00000000000009,10.000000000000044,10.000000000000044
-30.000000000000135,-90.0000000000004,-60.00000000000027,60.00000000000027,-0.0,-70.00000000000031,10.000000000000044,30.000000000000135,20.00000000000009,10.000000000000044,10.000000000000044,-0.0
-40.00000000000018,-90.0000000000004,-40.00000000000018,60.00000000000027,-0.0,-60.00000000000027,10.000000000000044,20.00000000000009,10.000000000000044,10.000000000000044,10.000000000000044,-0.0
-40.00000000000018,-90.0000000000004,-40.00000000000018,60.00000000000027,-0.0,-60.00000000000027,-0.0,10.000000000000044,10.000000000000044,10.000000000000044,10.000000000000044,-0.0
-20.00000000000009,-80.00000000000036,-40.00000000000018,40.00000000000018,-0.0,-50.00000000000022,-0.0,10.000000000000044,10.000000000000044,-0.0,-0.0,-0.0
10.000000000000044,-70.00000000000031,-70.00000000000031,20.00000000000009,30.000000000000135,-60.00000000000027,-0.0,10.000000000000044,-0.0,-0.0,-0.0,-0.0
70.00000000000031,-60.00000000000027,-110.00000000000048,-20.00000000000009,90.0000000000004,-70.00000000000031,-0.0,-0.0,-0.0,-0.0,-0.0,-0.0
160.0000000000007,-30.000000000000135,-160.0000000000007,-80.00000000000036,160.0000000000007,-80.00000000000036,-0.0,-0.0,-0.0,-0.0,-0.0,-0.0
270.0000000000012,-0.0,-240.00000000000108,-160.0000000000007,250.0000000000011,-100.00000000000044,-0.0,-0.0,-0.0,-0.0,-0.0,-0.0
390.0000000000017,40.00000000000018,-310.00000000000136,-240.00000000000108,350.00000000000153,-110.00000000000048,-0.0,-0.0,-0.0,-0.0,-0.0,-0.0
480.00000000000216,80.00000000000036,-370.00000000000165,-300.0000000000013,420.0000000000019,-120.00000000000054,-0.0,-0.0,-0.0,-0.0,-0.0,-0.0
540.0000000000024,110.00000000000048,-410.0000000000018,-340.00000000000153,470.0000000000021,-140.00000000000063,-0.0,-0.0,-0.0,-0.0,-0.0,-0.0
550.0000000000024,130.00000000000057,-430.00000000000193,-340.00000000000153,490.00000000000216,-150.00000000000065,-0.0,-0.0,-0.0,-0.0,-0.0,-0.0
520.0000000000023,120.00000000000054,-420.0000000000019,-310.00000000000136,460.00000000000205,-160.0000000000007,-0.0,-0.0,-0.0,-0.0,-0.0,-0.0
450.000000000002,90.0000000000004,-390.0000000000017,-250.0000000000011,410.0000000000018,-160.0000000000007,-0.0,-0.0,-0.0,-0.0,-0.0,-10.000000000000044
350.00000000000153,50.00000000000022,-340.00000000000153,-180.0000000000008,340.00000000000153,-160.0000000000007,-0.0,-0.0,-0.0,-10.000000000000044,-0.0,-10.000000000000044
240.00000000000108,10.000000000000044,-280.00000000000125,-100.00000000000044,250.0000000000011,-150.00000000000065,-0.0,-0.0,-0.0,-10.000000000000044,-0.0,-10.000000000000044
130.00000000000057,-30.000000000000135,-220.00000000000097,-30.000000000000135,170.00000000000077,-140.00000000000063,-0.0,-0.0,-0.0,-0.0,-0.0,-0.0
50.00000000000022,-70.00000000000031,-160.0000000000007,20.00000000000009,100.00000000000044,-130.00000000000057,-0.0,-0.0,-0.0,-0.0,-0.0,-10.000000000000044
-10.000000000000044,-100.00000000000044,-110.00000000000048,60.00000000000027,40.00000000000018,-120.00000000000054,-0.0,-0.0,-0.0,-0.0,-0.0,-10.000000000000044
-50.00000000000022,-120.00000000000054,-80.00000000000036,90.0000000000004,-0.0,-100.00000000000044,-0.0,-0.0,-0.0,-0.0,-0.0,-10.000000000000044
-70.00000000000031,-130.00000000000057,-60.00000000000027,100.00000000000044,-10.000000000000044,-90.0000000000004,-0.0,-0.0,-0.0,-0.0,-0.0,-10.000000000000044
-70.00000000000031,-130.00000000000057,-40.00000000000018,90.0000000000004,-10.000000000000044,-80.00000000000036,-0.0,-0.0,-0.0,-0.0,-10.000000000000044,-10.000000000000044
-70.00000000000031,-120.00000000000054,-40.00000000000018,80.00000000000036,-10.000000000000044,-80.00000000000036,-0.0,-0.0,-0.0,-0.0,-10.000000000000044,-10.000000000000044
-50.00000000000022,-110.00000000000048,-40.00000000000018,70.00000000000031,-0.0,-70.00000000000031,-0.0,-0.0,-0.0,-0.0,-0.0,-10.000000000000044
-40.00000000000018,-100.00000000000044,-50.00000000000022,60.00000000000027,-0.0,-70.00000000000031,-0.0,-0.0,-0.0,-0.0,-0.0,-10.000000000000044
-30.000000000000135,-90.0000000000004,-50.00000000000022,50.00000000000022,-0.0,-70.00000000000031,-0.0,-0.0,-0.0,-0.0,-0.0,-10.000000000000044
-20.00000000000009,-90.0000000000004,-60.00000000000027,50.00000000000022,10.000000000000044,-70.00000000000031,-0.0,-0.0,-0.0,-0.0,-0.0,-10.000000000000044
-20.00000000000009,-80.00000000000036,-60.00000000000027,50.00000000000022,10.000000000000044,-70.00000000000031,-0.0,-0.0,-0.0,-0.0,-0.0,-10.000000000000044
-20.00000000000009,-90.0000000000004,-60.00000000000027,50.00000000000022,20.00000000000009,-70.00000000000031,-0.0,-0.0,-0.0,-0.0,-0.0,-10.000000000000044
-20.00000000000009,-90.0000000000004,-60.00000000000027,50.00000000000022,10.000000000000044,-70.00000000000031,-0.0,-0.0,-0.0,-0.0,-0.0,-10.000000000000044
-20.00000000000009,-90.0000000000004,-60.00000000000027,50.00000000000022,20.00000000000009,-70.00000000000031,-0.0,-0.0,-0.0,-0.0,-0.0,-10.000000000000044
-20.00000000000009,-90.0000000000004,-70.00000000000031,50.00000000000022,20.00000000000009,-80.00000000000036,-0.0,-0.0,-0.0,-0.0,-0.0,-10.000000000000044
-20.00000000000009,-90.0000000000004,-60.00000000000027,50.00000000000022,10.000000000000044,-80.00000000000036,-0.0,-0.0,-0.0,-0.0,-0.0,-10.000000000000044
-20.00000000000009,-90.0000000000004,-60.00000000000027,50.00000000000022,10.000000000000044,-70.00000000000031,-0.0,-0.0,-0.0,-0.0,-10.000000000000044,-20.00000000000009
-20.00000000000009,-90.0000000000004,-60.00000000000027,60.00000000000027,10.000000000000044,-70.00000000000031,-0.0,-10.000000000000044,-10.000000000000044,-10.000000000000044,-10.000000000000044,-20.00000000000009
-20.00000000000009,-90.0000000000004,-60.00000000000027,60.00000000000027,10.000000000000044,-70.00000000000031,-10.000000000000044,-10.000000000000044,-10.000000000000044,-10.000000000000044,-10.000000000000044,-20.00000000000009
-20.00000000000009,-90.0000000000004,-60.00000000000027,50.00000000000022,10.000000000000044,-70.00000000000031,-10.000000000000044,-10.000000000000044,-10.000000000000044,-10.000000000000044,-10.000000000000044,-20.00000000000009
-20.00000000000009,-90.0000000000004,-60.00000000000027,50.00000000000022,10.000000000000044,-70.00000000000031,-10.000000000000044,-10.000000000000044,-10.000000000000044,-10.000000000000044,-10.000000000000044,-20.00000000000009
-20.00000000000009,-90.0000000000004,-60.00000000000027,50.00000000000022,10.000000000000044,-70.00000000000031,-10.000000000000044,-10.000000000000044,-10.000000000000044,-10.000000000000044,-10.000000000000044,-20.00000000000009
-20.00000000000009,-80.00000000000036,-60.00000000000027,50.00000000000022,10.000000000000044,-70.00000000000031,-10.000000000000044,-10.000000000000044,-10.000000000000044,-0.0,-10.000000000000044,-20.00000000000009
-20.00000000000009,-80.00000000000036,-60.00000000000027,50.00000000000022,10.000000000000044,-70.00000000000031,-10.000000000000044,-10.000000000000044,-10.000000000000044,-0.0,-0.0,-10.000000000000044
-10.000000000000044,-80.00000000000036,-60.00000000000027,40.00000000000018,10.000000000000044,-70.00000000000031,-10.000000000000044,-10.000000000000044,-0.0,-0.0,-0.0,-10.000000000000044
-10.000000000000044,-80.00000000000036,-60.00000000000027,40.00000000000018,10.000000000000044,-70.00000000000031,-10.000000000000044,-10.000000000000044,-0.0,-0.0,-0.0,-0.0
-10.000000000000044,-80.00000000000036,-60.00000000000027,40.00000000000018,10.000000000000044,-70.00000000000031,-10.000000000000044,-0.0,-0.0,-0.0,-0.0,-0.0
-10.000000000000044,-80.00000000000036,-50.00000000000022,40.00000000000018,10.000000000000044,-60.00000000000027,-0.0,-0.0,-0.0,-0.0,-0.0,-0.0
-10.000000000000044,-70.00000000000031,-60.00000000000027,40.00000000000018,20.00000000000009,-60.00000000000027,-0.0,-0.0,-0.0,-0.0,-0.0,-0.0
-0.0,-70.00000000000031,-60.00000000000027,30.000000000000135,20.00000000000009,-60.00000000000027,-10.000000000000044,-0.0,-0.0,-0.0,10.000000000000044,-0.0
-0.0,-70.00000000000031,-60.00000000000027,30.000000000000135,30.000000000000135,-60.00000000000027,-10.000000000000044,-0.0,-0.0,-0.0,10.000000000000044,-0.0
-0.0,-60.00000000000027,-60.00000000000027,20.00000000000009,30.000000000000135,-60.00000000000027,-20.00000000000009,-10.000000000000044,-0.0,-0.0,10.000000000000044,-0.0
-0.0,-60.00000000000027,-60.00000000000027,20.00000000000009,30.000000000000135,-60.00000000000027,-30.000000000000135,-10.000000000000044,-10.000000000000044,-0.0,10.000000000000044,10.000000000000044
-0.0,-50.00000000000022,-60.00000000000027,20.00000000000009,30.000000000000135,-60.00000000000027,-40.00000000000018,-20.00000000000009,-10.000000000000044,-0.0,10.000000000000044,10.000000000000044
-0.0,-50.00000000000022,-60.00000000000027,10.000000000000044,30.000000000000135,-50.00000000000022,-50.00000000000022,-30.000000000000135,-20.00000000000009,-0.0,10.000000000000044,10.000000000000044
-0.0,-50.00000000000022,-60.00000000000027,10.000000000000044,30.000000000000135,-50.00000000000022,-60.00000000000027,-40.00000000000018,-30.000000000000135,-0.0,10.000000000000044,10.000000000000044
-0.0,-50.00000000000022,-50.00000000000022,10.000000000000044,20.00000000000009,-40.00000000000018,-80.00000000000036,-50.00000000000022,-30.000000000000135,-0.0,10.000000000000044,10.000000000000044
-0.0,-40.00000000000018,-40.00000000000018,10.000000000000044,20.00000000000009,-40.00000000000018,-90.0000000000004,-60.00000000000027,-40.00000000000018,-0.0,10.000000000000044,10.000000000000044
-0.0,-30.000000000000135,-40.00000000000018,-0.0,20.00000000000009,-30.000000000000135,-90.0000000000004,-70.00000000000031,-40.00000000000018,-0.0,10.000000000000044,10.000000000000044
-0.0,-30.000000000000135,-30.000000000000135,-0.0,10.000000000000044,-20.00000000000009,-90.0000000000004,-80.00000000000036,-50.00000000000022,-0.0,10.000000000000044,10.000000000000044
10.000000000000044,-20.00000000000009,-20.00000000000009,-0.0,10.000000000000044,-20.00000000000009,-90.0000000000004,-80.00000000000036,-50.00000000000022,-10.000000000000044,10.000000000000044,20.00000000000009
10.000000000000044,-10.000000000000044,-20.00000000000009,-0.0,10.000000000000044,-10.000000000000044,-90.0000000000004,-80.00000000000036,-50.00000000000022,-10.000000000000044,10.000000000000044,20.00000000000009
10.000000000000044,-0.0,-10.000000000000044,-0.0,10.000000000000044,-0.0,-90.0000000000004,-80.00000000000036,-50.00000000000022,-10.000000000000044,10.000000000000044,10.000000000000044
10.000000000000044,-0.0,-10.000000000000044,-10.000000000000044,10.000000000000044,-0.0,-80.00000000000036,-80.00000000000036,-60.00000000000027,-10.000000000000044,-0.0,10.000000000000044
20.00000000000009,-0.0,-0.0,-10.000000000000044,10.000000000000044,-0.0,-80.00000000000036,-80.00000000000036,-70.00000000000031,-20.00000000000009,-0.0,-0.0
20.00000000000009,10.000000000000044,-0.0,-20.00000000000009,-0.0,-0.0,-70.00000000000031,-80.00000000000036,-80.00000000000036,-20.00000000000009,-0.0,-0.0
20.00000000000009,20.00000000000009,-0.0,-20.00000000000009,-0.0,10.000000000000044,-70.00000000000031,-80.00000000000036,-80.00000000000036,-30.000000000000135,-0.0,-0.0
20.00000000000009,20.00000000000009,-0.0,-30.000000000000135,-0.0,20.00000000000009,-70.00000000000031,-80.00000000000036,-90.0000000000004,-40.00000000000018,-0.0,-0.0
20.00000000000009,30.000000000000135,10.000000000000044,-30.000000000000135,-0.0,20.00000000000009,-70.00000000000031,-90.0000000000004,-100.00000000000044,-50.00000000000022,-10.000000000000044,-10.000000000000044
20.00000000000009,30.000000000000135,10.000000000000044,-30.000000000000135,-0.0,20.00000000000009,-70.00000000000031,-90.0000000000004,-100.00000000000044,-60.00000000000027,-20.00000000000009,-10.000000000000044
20.00000000000009,40.00000000000018,10.000000000000044,-30.000000000000135,-0.0,30.000000000000135,-70.00000000000031,-90.0000000000004,-110.00000000000048,-60.00000000000027,-20.00000000000009,-20.00000000000009
20.00000000000009,40.00000000000018,20.00000000000009,-40.00000000000018,-0.0,30.000000000000135,-70.00000000000031,-90.0000000000004,-110.00000000000048,-70.00000000000031,-30.000000000000135,-30.000000000000135
30.000000000000135,50.00000000000022,20.00000000000009,-40.00000000000018,-0.0,30.000000000000135,-80.00000000000036,-90.0000000000004,-110.00000000000048,-70.00000000000031,-30.000000000000135,-30.000000000000135
30.000000000000135,50.00000000000022,20.00000000000009,-40.00000000000018,-0.0,40.00000000000018,-80.00000000000036,-90.0000000000004,-110.00000000000048,-80.00000000000036,-30.000000000000135,-30.000000000000135
30.000000000000135,50.00000000000022,20.00000000000009,-40.00000000000018,-0.0,40.00000000000018,-80.00000000000036,-90.0000000000004,-110.00000000000048,-80.00000000000036,-40.00000000000018,-40.00000000000018
30.000000000000135,60.00000000000027,20.00000000000009,-40.00000000000018,-0.0,40.00000000000018,-90.0000000000004,-90.0000000000004,-110.00000000000048,-80.00000000000036,-40.00000000000018,-40.00000000000018
30.000000000000135,60.00000000000027,20.00000000000009,-40.00000000000018,-0.0,40.00000000000018,-90.0000000000004,-90.0000000000004,-110.00000000000048,-90.0000000000004,-40.00000000000018,-40.00000000000018
30.000000000000135,50.00000000000022,10.000000000000044,-40.00000000000018,-0.0,30.000000000000135,-90.0000000000004,-90.0000000000004,-110.00000000000048,-90.0000000000004,-40.00000000000018,-40.00000000000018
30.000000000000135,50.00000000000022,10.000000000000044,-40.00000000000018,-0.0,20.00000000000009,-100.00000000000044,-90.0000000000004,-110.00000000000048,-90.0000000000004,-40.00000000000018,-40.00000000000018
30.000000000000135,40.00000000000018,-0.0,-30.000000000000135,10.000000000000044,20.00000000000009,-100.00000000000044,-90.0000000000004,-110.00000000000048,-80.00000000000036,-40.00000000000018,-40.00000000000018
20.00000000000009,30.000000000000135,-0.0,-30.000000000000135,10.000000000000044,10.000000000000044,-100.00000000000044,-90.0000000000004,-100.00000000000044,-80.00000000000036,-40.00000000000018,-40.00000000000018
20.00000000000009,20.00000000000009,-0.0,-20.00000000000009,10.000000000000044,-0.0,-100.00000000000044,-80.00000000000036,-100.00000000000044,-80.00000000000036,-40.00000000000018,-40.00000000000018
10.000000000000044,10.000000000000044,-10.000000000000044,-10.000000000000044,10.000000000000044,-0.0,-90.0000000000004,-70.00000000000031,-100.00000000000044,-80.00000000000036,-40.00000000000018,-40.00000000000018
10.000000000000044,-0.0,-10.000000000000044,-0.0,10.000000000000044,-0.0,-70.00000000000031,-60.00000000000027,-70.00000000000031,-70.00000000000031,-40.00000000000018,-50.00000000000022
-0.0,-0.0,-10.000000000000044,-0.0,10.000000000000044,-10.000000000000044,-50.00000000000022,-40.00000000000018,-40.00000000000018,-30.000000000000135,-40.00000000000018,-50.00000000000022
-0.0,-10.000000000000044,-20.00000000000009,-0.0,-0.0,-20.00000000000009,-30.000000000000135,-20.00000000000009,20.00000000000009,30.000000000000135,-20.00000000000009,-30.000000000000135
-0.0,-20.00000000000009,-20.00000000000009,10.000000000000044,10.000000000000044,-20.00000000000009,-20.00000000000009,10.000000000000044,110.00000000000048,120.00000000000054,30.000000000000135,-0.0
-0.0,-20.00000000000009,-30.000000000000135,10.000000000000044,10.000000000000044,-30.000000000000135,-20.00000000000009,60.00000000000027,220.00000000000097,260.00000000000114,110.00000000000048,50.00000000000022
-0.0,-30.000000000000135,-30.000000000000135,10.000000000000044,10.000000000000044,-30.000000000000135,-50.00000000000022,120.00000000000054,340.00000000000153,410.0000000000018,210.00000000000094,150.00000000000065
-0.0,-30.000000000000135,-40.00000000000018,10.000000000000044,20.00000000000009,-40.00000000000018,-100.00000000000044,170.00000000000077,440.00000000000193,550.0000000000024,340.00000000000153,260.00000000000114
-0.0,-40.00000000000018,-50.00000000000022,10.000000000000044,20.00000000000009,-50.00000000000022,-170.00000000000077,190.00000000000085,500.0000000000022,650.0000000000028,460.00000000000205,370.00000000000165
10.000000000000044,-40.00000000000018,-60.00000000000027,10.000000000000044,30.000000000000135,-50.00000000000022,-250.0000000000011,150.00000000000065,480.00000000000216,690.0000000000031,550.0000000000024,460.00000000000205
10.000000000000044,-50.00000000000022,-70.00000000000031,10.000000000000044,40.00000000000018,-60.00000000000027,-350.00000000000153,70.00000000000031,390.0000000000017,630.0000000000028,590.0000000000026,520.0000000000023
10.000000000000044,-50.00000000000022,-70.00000000000031,10.000000000000044,40.00000000000018,-60.00000000000027,-450.000000000002,-50.00000000000022,230.00000000000102,500.0000000000022,560.0000000000025,540.0000000000024
10.000000000000044,-50.00000000000022,-70.00000000000031,20.00000000000009,40.00000000000018,-60.00000000000027,-540.0000000000024,-200.00000000000088,40.00000000000018,320.0000000000014,480.00000000000216,500.0000000000022
10.000000000000044,-50.00000000000022,-70.00000000000031,10.000000000000044,40.00000000000018,-60.00000000000027,-600.0000000000026,-380.0000000000017,-170.00000000000077,110.00000000000048,360.0000000000016,420.0000000000019
10.000000000000044,-50.00000000000022,-60.00000000000027,10.000000000000044,40.00000000000018,-60.00000000000027,-630.0000000000028,-540.0000000000024,-370.00000000000165,-90.0000000000004,210.00000000000094,320.0000000000014
10.000000000000044,-50.00000000000022,-60.00000000000027,10.000000000000044,30.000000000000135,-50.00000000000022,-620.0000000000027,-670.000000000003,-510.0000000000023,-270.0000000000012,60.00000000000027,200.00000000000088
10.000000000000044,-50.00000000000022,-50.00000000000022,10.000000000000044,30.000000000000135,-50.00000000000022,-580.0000000000026,-750.0000000000033,-590.0000000000026,-390.0000000000017,-60.00000000000027,90.0000000000004
-0.0,-40.00000000000018,-50.00000000000022,10.000000000000044,20.00000000000009,-40.00000000000018,-520.0000000000023,-760.0000000000034,-620.0000000000027,-450.000000000002,-160.0000000000007,-0.0
-0.0,-40.00000000000018,-40.00000000000018,10.000000000000044,20.00000000000009,-40.00000000000018,-440.00000000000193,-720.0000000000032,-580.0000000000026,-450.000000000002,-220.00000000000097,-70.00000000000031
-0.0,-30.000000000000135,-30.000000000000135,10.000000000000044,10.000000000000044,-30.000000000000135,-350.00000000000153,-630.0000000000028,-500.0000000000022,-410.0000000000018,-240.00000000000108,-110.00000000000048
-0.0,-30.000000000000135,-30.000000000000135,10.000000000000044,10.000000000000044,-30.000000000000135,-250.0000000000011,-510.0000000000023,-400.00000000000176,-350.00000000000153,-230.00000000000102,-130.00000000000057
-0.0,-30.000000000000135,-30.000000000000135,10.000000000000044,10.000000000000044,-30.000000000000135,-170.00000000000077,-380.0000000000017,-300.0000000000013,-270.0000000000012,-200.00000000000088,-130.00000000000057
-0.0,-30.000000000000135,-30.000000000000135,10.000000000000044,10.000000000000044,-30.000000000000135,-110.00000000000048,-260.00000000000114,-200.00000000000088,-190.00000000000085,-160.0000000000007,-120.00000000000054
-0.0,-30.000000000000135,-20.00000000000009,10.000000000000044,-0.0,-20.00000000000009,-50.00000000000022,-150.00000000000065,-120.00000000000054,-130.00000000000057,-120.00000000000054,-110.00000000000048
-0.0,-30.000000000000135,-20.00000000000009,10.000000000000044,-0.0,-20.00000000000009,-10.000000000000044,-60.00000000000027,-70.00000000000031,-90.0000000000004,-90.0000000000004,-90.0000000000004
-0.0,-30.000000000000135,-20.00000000000009,10.000000000000044,-0.0,-20.00000000000009,10.000000000000044,-10.000000000000044,-30.000000000000135,-60.00000000000027,-70.00000000000031,-80.00000000000036
-0.0,-20.00000000000009,-20.00000000000009,-0.0,-0.0,-20.00000000000009,30.000000000000135,30.000000000000135,-10.000000000000044,-50.00000000000022,-60.00000000000027,-70.00000000000031
-0.0,-20.00000000000009,-10.000000000000044,-0.0,-0.0,-10.000000000000044,40.00000000000018,50.00000000000022,-0.0,-40.00000000000018,-60.00000000000027,-70.00000000000031
-0.0,-10.000000000000044,-10.000000000000044,-0.0,-0.0,-10.000000000000044,50.00000000000022,70.00000000000031,-0.0,-40.00000000000018,-60.00000000000027,-60.00000000000027
-0.0,-10.000000000000044,-10.000000000000044,-0.0,10.000000000000044,-10.000000000000044,60.00000000000027,80.00000000000036,-0.0,-30.000000000000135,-50.00000000000022,-60.00000000000027
-0.0,-0.0,-10.000000000000044,-0.0,10.000000000000044,-0.0,60.00000000000027,90.0000000000004,10.000000000000044,-20.00000000000009,-50.00000000000022,-60.00000000000027
10.000000000000044,-0.0,-10.000000000000044,-0.0,10.000000000000044,-0.0,70.00000000000031,100.00000000000044,20.00000000000009,-20.00000000000009,-50.00000000000022,-60.00000000000027
10.000000000000044,-0.0,-10.000000000000044,-0.0,10.000000000000044,-0.0,70.00000000000031,100.00000000000044,30.000000000000135,-10.000000000000044,-50.00000000000022,-60.00000000000027
10.000000000000044,-0.0,-0.0,-0.0,-0.0,-0.0,80.00000000000036,110.00000000000048,40.00000000000018,-0.0,-40.00000000000018,-60.00000000000027
10.000000000000044,-0.0,-0.0,-10.000000000000044,10.000000000000044,-0.0,80.00000000000036,120.00000000000054,50.00000000000022,-0.0,-40.00000000000018,-50.00000000000022
10.000000000000044,-0.0,-0.0,-10.000000000000044,10.000000000000044,-0.0,80.00000000000036,130.00000000000057,50.00000000000022,-0.0,-40.00000000000018,-50.00000000000022
20.00000000000009,10.000000000000044,-0.0,-20.00000000000009,-0.0,-0.0,90.0000000000004,130.00000000000057,60.00000000000027,-0.0,-40.00000000000018,-50.00000000000022
10.000000000000044,10.000000000000044,-0.0,-20.00000000000009,-0.0,10.000000000000044,90.0000000000004,140.00000000000063,70.00000000000031,-0.0,-30.000000000000135,-50.00000000000022
10.000000000000044,20.00000000000009,-0.0,-20.00000000000009,-0.0,10.000000000000044,90.0000000000004,150.00000000000065,70.00000000000031,-0.0,-30.000000000000135,-40.00000000000018
10.000000000000044,20.00000000000009,10.000000000000044,-20.00000000000009,-0.0,20.00000000000009,90.0000000000004,150.00000000000065,80.00000000000036,10.000000000000044,-30.000000000000135,-40.00000000000018
-0.0,20.00000000000009,10.000000000000044,-20.00000000000009,-0.0,20.00000000000009,100.00000000000044,160.0000000000007,90.0000000000004,20.00000000000009,-20.00000000000009,-40.00000000000018
-0.0,30.000000000000135,20.00000000000009,-10.000000000000044,-10.000000000000044,20.00000000000009,100.00000000000044,180.0000000000008,100.00000000000044,30.000000000000135,-20.00000000000009,-30.000000000000135
-0.0,30.000000000000135,30.000000000000135,-10.000000000000044,-10.000000000000044,30.000000000000135,110.00000000000048,190.00000000000085,120.00000000000054,40.00000000000018,-10.000000000000044,-30.000000000000135
-0.0,30.000000000000135,30.000000000000135,-10.000000000000044,-10.000000000000044,30.000000000000135,110.00000000000048,210.00000000000094,130.00000000000057,50.00000000000022,-10.000000000000044,-30.000000000000135
-0.0,30.000000000000135,40.00000000000018,-10.000000000000044,-10.000000000000044,40.00000000000018,120.00000000000054,220.00000000000097,150.00000000000065,60.00000000000027,-0.0,-20.00000000000009
-0.0,40.00000000000018,40.00000000000018,-20.00000000000009,-20.00000000000009,40.00000000000018,130.00000000000057,240.00000000000108,160.0000000000007,70.00000000000031,-0.0,-20.00000000000009
-0.0,40.00000000000018,40.00000000000018,-30.000000000000135,-10.000000000000044,40.00000000000018,140.00000000000063,260.00000000000114,180.0000000000008,80.00000000000036,-0.0,-20.00000000000009
-0.0,50.00000000000022,50.00000000000022,-30.000000000000135,-20.00000000000009,50.00000000000022,150.00000000000065,270.0000000000012,190.00000000000085,90.0000000000004,-0.0,-20.00000000000009
-0.0,50.00000000000022,50.00000000000022,-40.00000000000018,-20.00000000000009,60.00000000000027,160.0000000000007,300.0000000000013,210.00000000000094,100.00000000000044,-0.0,-10.000000000000044
10.000000000000044,60.00000000000027,60.00000000000027,-50.00000000000022,-20.00000000000009,70.00000000000031,170.00000000000077,320.0000000000014,230.00000000000102,110.00000000000048,10.000000000000044,-10.000000000000044
10.000000000000044,80.00000000000036,70.00000000000031,-60.00000000000027,-20.00000000000009,80.00000000000036,180.0000000000008,340.00000000000153,240.00000000000108,120.00000000000054,10.000000000000044,-10.000000000000044
20.00000000000009,90.0000000000004,80.00000000000036,-60.00000000000027,-30.000000000000135,90.0000000000004,180.0000000000008,360.0000000000016,260.00000000000114,130.00000000000057,20.00000000000009,-0.0
20.00000000000009,100.00000000000044,90.0000000000004,-70.00000000000031,-30.000000000000135,100.00000000000044,190.00000000000085,380.0000000000017,280.00000000000125,140.00000000000063,30.000000000000135,-0.0
20.00000000000009,110.00000000000048,100.00000000000044,-80.00000000000036,-40.00000000000018,110.00000000000048,200.00000000000088,410.0000000000018,300.0000000000013,150.00000000000065,30.000000000000135,-0.0
20.00000000000009,130.00000000000057,110.00000000000048,-80.00000000000036,-40.00000000000018,120.00000000000054,210.00000000000094,430.00000000000193,310.00000000000136,160.0000000000007,40.00000000000018,-0.0
20.00000000000009,140.00000000000063,120.00000000000054,-90.0000000000004,-40.00000000000018,130.00000000000057,220.00000000000097,450.000000000002,330.0000000000015,170.00000000000077,40.00000000000018,-0.0
30.000000000000135,150.00000000000065,130.00000000000057,-100.00000000000044,-40.00000000000018,140.00000000000063,220.00000000000097,470.0000000000021,350.00000000000153,180.0000000000008,50.00000000000022,-0.0
40.00000000000018,160.0000000000007,130.00000000000057,-110.00000000000048,-40.00000000000018,150.00000000000065,230.00000000000102,490.00000000000216,370.00000000000165,190.00000000000085,50.00000000000022,-0.0
50.00000000000022,170.00000000000077,130.00000000000057,-120.00000000000054,-40.00000000000018,160.0000000000007,240.00000000000108,510.0000000000023,380.0000000000017,200.00000000000088,60.00000000000027,10.000000000000044
50.00000000000022,180.0000000000008,130.00000000000057,-130.00000000000057,-30.000000000000135,160.0000000000007,250.0000000000011,530.0000000000024,400.00000000000176,210.00000000000094,60.00000000000027,10.000000000000044
60.00000000000027,190.00000000000085,140.00000000000063,-130.00000000000057,-30.000000000000135,170.00000000000077,260.00000000000114,550.0000000000024,410.0000000000018,220.00000000000097,60.00000000000027,10.000000000000044
70.00000000000031,200.00000000000088,140.00000000000063,-140.00000000000063,-30.000000000000135,180.0000000000008,270.0000000000012,570.0000000000025,420.0000000000019,230.00000000000102,70.00000000000031,20.00000000000009
70.00000000000031,210.00000000000094,140.00000000000063,-150.00000000000065,-30.000000000000135,180.0000000000008,280.00000000000125,580.0000000000026,420.0000000000019,230.00000000000102,70.00000000000031,20.00000000000009
70.00000000000031,220.00000000000097,140.00000000000063,-150.00000000000065,-30.000000000000135,180.0000000000008,290.0000000000013,590.0000000000026,420.0000000000019,230.00000000000102,70.00000000000031,20.00000000000009
70.00000000000031,220.00000000000097,140.00000000000063,-150.00000000000065,-30.000000000000135,180.0000000000008,290.0000000000013,600.0000000000026,420.0000000000019,230.00000000000102,70.00000000000031,20.00000000000009
70.00000000000031,220.00000000000097,140.00000000000063,-150.00000000000065,-30.000000000000135,180.0000000000008,290.0000000000013,590.0000000000026,410.0000000000018,230.00000000000102,70.00000000000031,30.000000000000135
70.00000000000031,220.00000000000097,140.00000000000063,-140.00000000000063,-30.000000000000135,170.00000000000077,290.0000000000013,580.0000000000026,400.00000000000176,220.00000000000097,60.00000000000027,30.000000000000135
60.00000000000027,210.00000000000094,140.00000000000063,-140.00000000000063,-30.000000000000135,170.00000000000077,280.00000000000125,570.0000000000025,380.0000000000017,210.00000000000094,60.00000000000027,30.000000000000135
60.00000000000027,210.00000000000094,140.00000000000063,-130.00000000000057,-40.00000000000018,170.00000000000077,270.0000000000012,550.0000000000024,360.0000000000016,210.00000000000094,60.00000000000027,30.000000000000135
50.00000000000022,200.00000000000088,140.00000000000063,-120.00000000000054,-40.00000000000018,170.00000000000077,260.00000000000114,520.0000000000023,340.00000000000153,190.00000000000085,60.00000000000027,30.000000000000135
40.00000000000018,200.00000000000088,140.00000000000063,-120.00000000000054,-40.00000000000018,170.00000000000077,240.00000000000108,490.00000000000216,310.00000000000136,180.0000000000008,60.00000000000027,30.000000000000135
40.00000000000018,190.00000000000085,140.00000000000063,-110.00000000000048,-50.00000000000022,170.00000000000077,220.00000000000097,450.000000000002,280.00000000000125,160.0000000000007,50.00000000000022,30.000000000000135
30.000000000000135,190.00000000000085,160.0000000000007,-110.00000000000048,-60.00000000000027,180.0000000000008,200.00000000000088,400.00000000000176,250.0000000000011,150.00000000000065,50.00000000000022,30.000000000000135
30.000000000000135,200.00000000000088,160.0000000000007,-110.00000000000048,-60.00000000000027,180.0000000000008,170.00000000000077,360.0000000000016,210.00000000000094,130.00000000000057,40.00000000000018,30.000000000000135
30.000000000000135,200.00000000000088,170.00000000000077,-120.00000000000054,-60.00000000000027,190.00000000000085,150.00000000000065,310.00000000000136,180.0000000000008,110.00000000000048,40.00000000000018,30.000000000000135
40.00000000000018,200.00000000000088,170.00000000000077,-130.00000000000057,-60.00000000000027,190.00000000000085,120.00000000000054,270.0000000000012,150.00000000000065,100.00000000000044,30.000000000000135,30.000000000000135
50.00000000000022,210.00000000000094,160.0000000000007,-140.00000000000063,-50.00000000000022,190.00000000000085,100.00000000000044,220.00000000000097,120.00000000000054,80.00000000000036,30.000000000000135,30.000000000000135
60.00000000000027,220.00000000000097,150.00000000000065,-150.00000000000065,-40.00000000000018,190.00000000000085,80.00000000000036,180.0000000000008,90.0000000000004,70.00000000000031,30.000000000000135,30.000000000000135
90.0000000000004,230.00000000000102,130.00000000000057,-160.0000000000007,-20.00000000000009,180.0000000000008,60.00000000000027,140.00000000000063,70.00000000000031,60.00000000000027,20.00000000000009,30.000000000000135
130.00000000000057,230.00000000000102,90.0000000000004,-180.0000000000008,20.00000000000009,150.00000000000065,50.00000000000022,110.00000000000048,50.00000000000022,40.00000000000018,20.00000000000009,30.000000000000135
180.0000000000008,230.00000000000102,30.000000000000135,-210.00000000000094,70.00000000000031,120.00000000000054,40.00000000000018,90.0000000000004,30.000000000000135,30.000000000000135,10.000000000000044,20.00000000000009
210.00000000000094,220.00000000000097,-0.0,-210.00000000000094,100.00000000000044,100.00000000000044,30.000000000000135,60.00000000000027,10.000000000000044,20.00000000000009,-0.0,20.00000000000009
200.00000000000088,210.00000000000094,-10.000000000000044,-200.00000000000088,100.00000000000044,80.00000000000036,30.000000000000135,40.00000000000018,-0.0,10.000000000000044,-0.0,10.000000000000044
190.00000000000085,190.00000000000085,-20.00000000000009,-180.0000000000008,100.00000000000044,60.00000000000027,20.00000000000009,30.000000000000135,-0.0,-0.0,-0.0,-0.0
190.00000000000085,160.0000000000007,-50.00000000000022,-170.00000000000077,120.00000000000054,30.000000000000135,20.00000000000009,10.000000000000044,-10.000000000000044,-0.0,-10.000000000000044,-0.0
170.00000000000077,130.00000000000057,-70.00000000000031,-140.00000000000063,120.00000000000054,10.000000000000044,20.00000000000009,-0.0,-20.00000000000009,-0.0,-10.000000000000044,-0.0
130.00000000000057,110.00000000000048,-50.00000000000022,-100.00000000000044,90.0000000000004,10.000000000000044,10.000000000000044,-0.0,-30.000000000000135,-10.000000000000044,-20.00000000000009,-0.0
90.0000000000004,80.00000000000036,-40.00000000000018,-70.00000000000031,60.00000000000027,-0.0,10.000000000000044,-0.0,-30.000000000000135,-20.00000000000009,-20.00000000000009,-0.0
60.00000000000027,50.00000000000022,-30.000000000000135,-50.00000000000022,40.00000000000018,-0.0,10.000000000000044,-0.0,-30.000000000000135,-20.00000000000009,-20.00000000000009,-10.000000000000044
60.00000000000027,30.000000000000135,-30.000000000000135,-40.00000000000018,40.00000000000018,-0.0,10.000000000000044,-0.0,-30.000000000000135,-20.00000000000009,-20.00000000000009,-0.0
70.00000000000031,20.00000000000009,-50.00000000000022,-50.00000000000022,60.00000000000027,-0.0,10.000000000000044,-0.0,-30.000000000000135,-20.00000000000009,-20.00000000000009,-0.0
130.00000000000057,20.00000000000009,-90.0000000000004,-90.0000000000004,100.00000000000044,-10.000000000000044,-0.0,-0.0,-30.000000000000135,-20.00000000000009,-10.000000000000044,-0.0
200.00000000000088,50.00000000000022,-130.00000000000057,-140.00000000000063,160.0000000000007,-20.00000000000009,-0.0,-0.0,-30.000000000000135,-20.00000000000009,-10.000000000000044,-0.0
290.0000000000013,80.00000000000036,-180.0000000000008,-210.00000000000094,240.00000000000108,-30.000000000000135,-0.0,-0.0,-30.000000000000135,-20.00000000000009,-10.000000000000044,-0.0
390.0000000000017,120.00000000000054,-230.00000000000102,-280.00000000000125,310.00000000000136,-30.000000000000135,-0.0,-0.0,-30.000000000000135,-20.00000000000009,-10.000000000000044,-0.0
460.00000000000205,160.0000000000007,-280.00000000000125,-320.0000000000014,370.00000000000165,-50.00000000000022,-0.0,-0.0,-30.000000000000135,-20.00000000000009,-10.000000000000044,-0.0
500.0000000000022,180.0000000000008,-320.0000000000014,-350.00000000000153,410.0000000000018,-70.00000000000031,-0.0,-0.0,-20.00000000000009,-20.00000000000009,-10.000000000000044,-0.0
500.0000000000022,180.0000000000008,-340.00000000000153,-330.0000000000015,410.0000000000018,-90.0000000000004,-0.0,-0.0,-20.00000000000009,-20.00000000000009,-10.000000000000044,-0.0
450.000000000002,160.0000000000007,-330.0000000000015,-290.0000000000013,390.0000000000017,-100.00000000000044,-0.0,-0.0,-20.00000000000009,-20.00000000000009,-10.000000000000044,-0.0
370.00000000000165,120.00000000000054,-300.0000000000013,-220.00000000000097,340.00000000000153,-120.00000000000054,-0.0,-0.0,-20.00000000000009,-30.000000000000135,-10.000000000000044,-0.0
280.00000000000125,60.00000000000027,-270.0000000000012,-140.00000000000063,270.0000000000012,-130.00000000000057,-0.0,-0.0,-20.00000000000009,-30.000000000000135,-20.00000000000009,-0.0
170.00000000000077,10.000000000000044,-220.00000000000097,-60.00000000000027,190.00000000000085,-130.00000000000057,-0.0,-0.0,-20.00000000000009,-30.000000000000135,-20.00000000000009,-0.0
80.00000000000036,-40.00000000000018,-170.00000000000077,-0.0,120.00000000000054,-130.00000000000057,-0.0,-0.0,-20.00000000000009,-30.000000000000135,-20.00000000000009,-0.0
-0.0,-90.0000000000004,-120.00000000000054,50.00000000000022,50.00000000000022,-120.00000000000054,-0.0,-0.0,-20.00000000000009,-30.000000000000135,-20.00000000000009,-0.0
-50.00000000000022,-120.00000000000054,-80.00000000000036,90.0000000000004,10.000000000000044,-110.00000000000048,-0.0,-0.0,-20.00000000000009,-30.000000000000135,-20.00000000000009,-0.0
-90.0000000000004,-130.00000000000057,-50.00000000000022,100.00000000000044,-10.000000000000044,-90.0000000000004,-0.0,-0.0,-10.000000000000044,-30.000000000000135,-20.00000000000009,-0.0
-100.00000000000044,-130.00000000000057,-30.000000000000135,110.00000000000048,-30.000000000000135,-80.00000000000036,-0.0,-0.0,-10.000000000000044,-20.00000000000009,-20.00000000000009,-0.0
-100.00000000000044,-130.00000000000057,-10.000000000000044,100.00000000000044,-40.00000000000018,-60.00000000000027,-0.0,-0.0,-10.000000000000044,-20.00000000000009,-20.00000000000009,-0.0
-90.0000000000004,-120.00000000000054,-0.0,90.0000000000004,-40.00000000000018,-50.00000000000022,-0.0,-0.0,-10.000000000000044,-20.00000000000009,-20.00000000000009,-0.0
-80.00000000000036,-100.00000000000044,-0.0,80.00000000000036,-30.000000000000135,-40.00000000000018,-0.0,-0.0,-10.000000000000044,-10.000000000000044,-20.00000000000009,-0.0
-70.00000000000031,-90.0000000000004,-10.000000000000044,70.00000000000031,-30.000000000000135,-40.00000000000018,-0.0,-0.0,-0.0,-10.000000000000044,-20.00000000000009,-0.0
-60.00000000000027,-80.00000000000036,-10.000000000000044,70.00000000000031,-20.00000000000009,-40.00000000000018,-0.0,10.000000000000044,-0.0,-10.000000000000044,-10.000000000000044,-0.0
-60.00000000000027,-70.00000000000031,-20.00000000000009,70.00000000000031,-10.000000000000044,-50.00000000000022,-0.0,10.000000000000044,-0.0,-10.000000000000044,-10.000000000000044,-0.0
-60.00000000000027,-80.00000000000036,-20.00000000000009,70.00000000000031,-10.000000000000044,-50.00000000000022,-0.0,10.000000000000044,-0.0,-10.000000000000044,-0.0,-0.0
-60.00000000000027,-80.00000000000036,-20.00000000000009,70.00000000000031,-20.00000000000009,-50.00000000000022,-0.0,10.000000000000044,-0.0,-0.0,-0.0,-0.0
-60.00000000000027,-80.00000000000036,-20.00000000000009,70.00000000000031,-20.00000000000009,-50.00000000000022,-0.0,10.000000000000044,-0.0,-10.000000000000044,-0.0,-0.0
-70.00000000000031,-90.0000000000004,-20.00000000000009,80.00000000000036,-20.00000000000009,-60.00000000000027,-0.0,10.000000000000044,-0.0,-10.000000000000044,-0.0,-0.0
-60.00000000000027,-90.0000000000004,-30.000000000000135,80.00000000000036,-10.000000000000044,-60.00000000000027,-0.0,10.000000000000044,-0.0,-10.000000000000044,-0.0,-0.0
-60.00000000000027,-100.00000000000044,-30.000000000000135,80.00000000000036,-10.000000000000044,-60.00000000000027,-0.0,10.000000000000044,-0.0,-10.000000000000044,-0.0,-0.0
-60.00000000000027,-100.00000000000044,-30.000000000000135,80.00000000000036,-10.000000000000044,-70.00000000000031,-0.0,10.000000000000044,-0.0,-10.000000000000044,-0.0,-0.0
-60.00000000000027,-100.00000000000044,-40.00000000000018,80.00000000000036,-10.000000000000044,-70.00000000000031,-0.0,-0.0,-0.0,-10.000000000000044,-0.0,-0.0
-60.00000000000027,-100.00000000000044,-40.00000000000018,80.00000000000036,-0.0,-70.00000000000031,-0.0,-0.0,-0.0,-10.000000000000044,-0.0,-0.0
-50.00000000000022,-100.00000000000044,-50.00000000000022,80.00000000000036,-0.0,-80.00000000000036,-10.000000000000044,-0.0,-0.0,-10.000000000000044,-0.0,-0.0
-50.00000000000022,-100.00000000000044,-50.00000000000022,80.00000000000036,-0.0,-80.00000000000036,-10.000000000000044,-0.0,-0.0,-20.00000000000009,-0.0,-0.0
-50.00000000000022,-100.00000000000044,-60.00000000000027,70.00000000000031,-0.0,-80.00000000000036,-10.000000000000044,-0.0,-0.0,-20.00000000000009,-0.0,-0.0
-40.00000000000018,-100.00000000000044,-60.00000000000027,70.00000000000031,-0.0,-80.00000000000036,-10.000000000000044,-0.0,-0.0,-20.00000000000009,-10.000000000000044,-0.0
-40.00000000000018,-110.00000000000048,-60.00000000000027,70.00000000000031,10.000000000000044,-90.0000000000004,-10.000000000000044,-0.0,-0.0,-10.000000000000044,-10.000000000000044,-0.0
-30.000000000000135,-110.00000000000048,-70.00000000000031,70.00000000000031,10.000000000000044,-90.0000000000004,-10.000000000000044,-0.0,-0.0,-10.000000000000044,-10.000000000000044,-0.0
-30.000000000000135,-100.00000000000044,-70.00000000000031,70.00000000000031,10.000000000000044,-90.0000000000004,-0.0,10.000000000000044,-0.0,-0.0,-0.0,-0.0
-30.000000000000135,-100.00000000000044,-70.00000000000031,60.00000000000027,20.00000000000009,-90.0000000000004,-0.0,10.000000000000044,10.000000000000044,-0.0,-0.0,-0.0
-20.00000000000009,-100.00000000000044,-70.00000000000031,60.00000000000027,20.00000000000009,-90.0000000000004,-0.0,20.00000000000009,10.000000000000044,-0.0,-0.0,-0.0
-20.00000000000009,-100.00000000000044,-70.00000000000031,60.00000000000027,20.00000000000009,-90.0000000000004,-0.0,20.00000000000009,20.00000000000009,-0.0,-0.0,10.000000000000044
-20.00000000000009,-100.00000000000044,-70.00000000000031,50.00000000000022,20.00000000000009,-80.00000000000036,-0.0,20.00000000000009,20.00000000000009,-0.0,-0.0,20.00000000000009
-10.000000000000044,-100.00000000000044,-70.00000000000031,50.00000000000022,20.00000000000009,-80.00000000000036,-10.000000000000044,20.00000000000009,10.000000000000044,-0.0,10.000000000000044,30.000000000000135
-10.000000000000044,-90.0000000000004,-70.00000000000031,50.00000000000022,20.00000000000009,-80.00000000000036,-20.00000000000009,10.000000000000044,10.000000000000044,-0.0,10.000000000000044,40.00000000000018
-10.000000000000044,-90.0000000000004,-80.00000000000036,50.00000000000022,30.000000000000135,-80.00000000000036,-40.00000000000018,-0.0,10.000000000000044,-0.0,10.000000000000044,40.00000000000018
-0.0,-90.0000000000004,-80.00000000000036,40.00000000000018,30.000000000000135,-80.00000000000036,-50.00000000000022,-0.0,-0.0,-0.0,10.000000000000044,40.00000000000018
-0.0,-80.00000000000036,-80.00000000000036,40.00000000000018,30.000000000000135,-80.00000000000036,-60.00000000000027,-10.000000000000044,-0.0,-0.0,10.000000000000044,50.00000000000022
-0.0,-80.00000000000036,-80.00000000000036,40.00000000000018,30.000000000000135,-80.00000000000036,-70.00000000000031,-10.000000000000044,-0.0,-0.0,10.000000000000044,50.00000000000022
-0.0,-80.00000000000036,-70.00000000000031,30.000000000000135,30.000000000000135,-70.00000000000031,-80.00000000000036,-20.00000000000009,-0.0,-0.0,-0.0,40.00000000000018
-0.0,-70.00000000000031,-70.00000000000031,30.000000000000135,30.000000000000135,-70.00000000000031,-80.00000000000036,-20.00000000000009,-0.0,-0.0,-0.0,40.00000000000018
-0.0,-70.00000000000031,-70.00000000000031,20.00000000000009,30.000000000000135,-60.00000000000027,-80.00000000000036,-30.000000000000135,-0.0,-0.0,-0.0,40.00000000000018
-0.0,-60.00000000000027,-60.00000000000027,20.00000000000009,30.000000000000135,-60.00000000000027,-80.00000000000036,-20.00000000000009,-0.0,-0.0,-0.0,40.00000000000018
10.000000000000044,-60.00000000000027,-60.00000000000027,10.000000000000044,40.00000000000018,-60.00000000000027,-80.00000000000036,-20.00000000000009,-0.0,-0.0,-0.0,40.00000000000018
10.000000000000044,-50.00000000000022,-60.00000000000027,10.000000000000044,30.000000000000135,-50.00000000000022,-80.00000000000036,-20.00000000000009,-0.0,-0.0,-0.0,40.00000000000018
10.000000000000044,-40.00000000000018,-60.00000000000027,-0.0,30.000000000000135,-50.00000000000022,-70.00000000000031,-20.00000000000009,-0.0,-0.0,-0.0,40.00000000000018
10.000000000000044,-40.00000000000018,-50.00000000000022,-0.0,30.000000000000135,-40.00000000000018,-60.00000000000027,-20.00000000000009,-0.0,-0.0,-0.0,30.000000000000135
10.000000000000044,-30.000000000000135,-50.00000000000022,-0.0,30.000000000000135,-40.00000000000018,-60.00000000000027,-20.00000000000009,-0.0,-10.000000000000044,-0.0,20.00000000000009
10.000000000000044,-30.000000000000135,-40.00000000000018,-0.0,30.000000000000135,-30.000000000000135,-50.00000000000022,-20.00000000000009,-10.000000000000044,-20.00000000000009,-10.000000000000044,10.000000000000044
10.000000000000044,-20.00000000000009,-40.00000000000018,-0.0,20.00000000000009,-30.000000000000135,-50.00000000000022,-20.00000000000009,-20.00000000000009,-30.000000000000135,-20.00000000000009,10.000000000000044
10.000000000000044,-20.00000000000009,-30.000000000000135,-0.0,20.00000000000009,-20.00000000000009,-50.00000000000022,-30.000000000000135,-30.000000000000135,-40.00000000000018,-30.000000000000135,-0.0
-0.0,-20.00000000000009,-20.00000000000009,-0.0,10.000000000000044,-20.00000000000009,-40.00000000000018,-40.00000000000018,-40.00000000000018,-40.00000000000018,-40.00000000000018,-0.0
-0.0,-10.000000000000044,-20.00000000000009,-0.0,10.000000000000044,-10.000000000000044,-40.00000000000018,-50.00000000000022,-40.00000000000018,-50.00000000000022,-40.00000000000018,-0.0
-0.0,-10.000000000000044,-10.000000000000044,-0.0,-0.0,-0.0,-40.00000000000018,-50.00000000000022,-40.00000000000018,-50.00000000000022,-50.00000000000022,-10.000000000000044
-0.0,-0.0,-10.000000000000044,-0.0,-0.0,-0.0,-40.00000000000018,-60.00000000000027,-50.00000000000022,-50.00000000000022,-50.00000000000022,-10.000000000000044
-0.0,-0.0,-10.000000000000044,-0.0,-0.0,-0.0,-40.00000000000018,-60.00000000000027,-50.00000000000022,-50.00000000000022,-50.00000000000022,-10.000000000000044
10.000000000000044,-0.0,-10.000000000000044,-0.0,-0.0,-0.0,-40.00000000000018,-60.00000000000027,-50.00000000000022,-50.00000000000022,-50.00000000000022,-20.00000000000009
10.000000000000044,-0.0,-10.000000000000044,-0.0,10.000000000000044,-0.0,-40.00000000000018,-60.00000000000027,-50.00000000000022,-50.00000000000022,-50.00000000000022,-20.00000000000009
10.000000000000044,-0.0,-10.000000000000044,-0.0,10.000000000000044,-0.0,-30.000000000000135,-70.00000000000031,-50.00000000000022,-50.00000000000022,-50.00000000000022,-20.00000000000009
20.00000000000009,-0.0,-20.00000000000009,-0.0,20.00000000000009,-10.000000000000044,-30.000000000000135,-70.00000000000031,-50.00000000000022,-40.00000000000018,-40.00000000000018,-10.000000000000044
20.00000000000009,-0.0,-30.000000000000135,-0.0,20.00000000000009,-20.00000000000009,-30.000000000000135,-70.00000000000031,-50.00000000000022,-40.00000000000018,-40.00000000000018,-10.000000000000044
10.000000000000044,-10.000000000000044,-30.000000000000135,-0.0,20.00000000000009,-20.00000000000009,-30.000000000000135,-60.00000000000027,-40.00000000000018,-50.00000000000022,-40.00000000000018,-10.000000000000044
10.000000000000044,-10.000000000000044,-40.00000000000018,-0.0,20.00000000000009,-30.000000000000135,-20.00000000000009,-60.00000000000027,-40.00000000000018,-50.00000000000022,-40.00000000000018,-10.000000000000044
10.000000000000044,-20.00000000000009,-40.00000000000018,-0.0,20.00000000000009,-40.00000000000018,-20.00000000000009,-60.00000000000027,-40.00000000000018,-60.00000000000027,-40.00000000000018,-20.00000000000009
10.000000000000044,-30.000000000000135,-50.00000000000022,10.000000000000044,30.000000000000135,-50.00000000000022,-0.0,-50.00000000000022,-40.00000000000018,-60.00000000000027,-50.00000000000022,-20.00000000000009
-0.0,-40.00000000000018,-60.00000000000027,10.000000000000044,30.000000000000135,-50.00000000000022,-0.0,-40.00000000000018,-20.00000000000009,-30.000000000000135,-50.00000000000022,-30.000000000000135
-0.0,-50.00000000000022,-60.00000000000027,20.00000000000009,30.000000000000135,-60.00000000000027,-0.0,-20.00000000000009,20.00000000000009,10.000000000000044,-30.000000000000135,-30.000000000000135
-0.0,-60.00000000000027,-60.00000000000027,30.000000000000135,20.00000000000009,-60.00000000000027,10.000000000000044,-0.0,100.00000000000044,80.00000000000036,-0.0,-0.0
-10.000000000000044,-70.00000000000031,-60.00000000000027,30.000000000000135,20.00000000000009,-70.00000000000031,30.000000000000135,50.00000000000022,200.00000000000088,200.00000000000088,50.00000000000022,40.00000000000018
-10.000000000000044,-70.00000000000031,-60.00000000000027,40.00000000000018,20.00000000000009,-70.00000000000031,10.000000000000044,120.00000000000054,310.00000000000136,350.00000000000153,150.00000000000065,120.00000000000054
-10.000000000000044,-80.00000000000036,-60.00000000000027,40.00000000000018,20.00000000000009,-70.00000000000031,-20.00000000000009,190.00000000000085,420.0000000000019,490.00000000000216,270.0000000000012,230.00000000000102
-10.000000000000044,-80.00000000000036,-60.00000000000027,50.00000000000022,20.00000000000009,-70.00000000000031,-70.00000000000031,230.00000000000102,510.0000000000023,620.0000000000027,400.00000000000176,340.00000000000153
-20.00000000000009,-80.00000000000036,-60.00000000000027,50.00000000000022,10.000000000000044,-70.00000000000031,-150.00000000000065,230.00000000000102,550.0000000000024,690.0000000000031,510.0000000000023,460.00000000000205
-20.00000000000009,-90.0000000000004,-60.00000000000027,50.00000000000022,10.000000000000044,-70.00000000000031,-240.00000000000108,190.00000000000085,490.00000000000216,680.0000000000031,580.0000000000026,550.0000000000024
-20.00000000000009,-90.0000000000004,-60.00000000000027,50.00000000000022,10.000000000000044,-70.00000000000031,-340.00000000000153,90.0000000000004,370.00000000000165,590.0000000000026,600.0000000000026,590.0000000000026
-20.00000000000009,-90.0000000000004,-60.00000000000027,60.00000000000027,10.000000000000044,-70.00000000000031,-430.00000000000193,-50.00000000000022,190.00000000000085,430.00000000000193,540.0000000000024,580.0000000000026
-30.000000000000135,-90.0000000000004,-60.00000000000027,60.00000000000027,10.000000000000044,-70.00000000000031,-500.0000000000022,-220.00000000000097,-10.000000000000044,220.00000000000097,440.00000000000193,530.0000000000024
-20.00000000000009,-90.0000000000004,-60.00000000000027,60.00000000000027,10.000000000000044,-70.00000000000031,-550.0000000000024,-410.0000000000018,-220.00000000000097,10.000000000000044,300.0000000000013,430.00000000000193
-20.00000000000009,-90.0000000000004,-60.00000000000027,50.00000000000022,10.000000000000044,-70.00000000000031,-570.0000000000025,-570.0000000000025,-390.0000000000017,-170.00000000000077,140.00000000000063,310.00000000000136
-20.00000000000009,-90.0000000000004,-60.00000000000027,50.00000000000022,10.000000000000044,-70.00000000000031,-550.0000000000024,-680.0000000000031,-510.0000000000023,-320.0000000000014,-0.0,200.00000000000088
-20.00000000000009,-90.0000000000004,-60.00000000000027,50.00000000000022,10.000000000000044,-70.00000000000031,-510.0000000000023,-740.0000000000033,-570.0000000000025,-420.0000000000019,-110.00000000000048,90.0000000000004
-20.00000000000009,-90.0000000000004,-60.00000000000027,50.00000000000022,10.000000000000044,-70.00000000000031,-440.00000000000193,-730.0000000000033,-570.0000000000025,-460.00000000000205,-190.00000000000085,10.000000000000044
-20.00000000000009,-90.0000000000004,-60.00000000000027,50.00000000000022,10.000000000000044,-70.00000000000031,-350.00000000000153,-670.000000000003,-510.0000000000023,-450.000000000002,-230.00000000000102,-50.00000000000022
-20.00000000000009,-80.00000000000036,-60.00000000000027,50.00000000000022,10.000000000000044,-70.00000000000031,-260.00000000000114,-570.0000000000025,-420.0000000000019,-390.0000000000017,-240.00000000000108,-90.0000000000004
-10.000000000000044,-80.00000000000036,-60.00000000000027,40.00000000000018,10.000000000000044,-70.00000000000031,-180.0000000000008,-440.00000000000193,-310.00000000000136,-320.0000000000014,-220.00000000000097,-100.00000000000044
-10.000000000000044,-80.00000000000036,-60.00000000000027,40.00000000000018,10.000000000000044,-60.00000000000027,-110.00000000000048,-310.00000000000136,-210.00000000000094,-250.0000000000011,-190.00000000000085,-100.00000000000044
-10.000000000000044,-70.00000000000031,-60.00000000000027,40.00000000000018,20.00000000000009,-60.00000000000027,-50.00000000000022,-190.00000000000085,-120.00000000000054,-180.0000000000008,-150.00000000000065,-90.0000000000004
-0.0,-70.00000000000031,-50.00000000000022,30.000000000000135,20.00000000000009,-60.00000000000027,-0.0,-90.0000000000004,-50.00000000000022,-120.00000000000054,-120.00000000000054,-80.00000000000036
-0.0,-60.00000000000027,-50.00000000000022,30.000000000000135,20.00000000000009,-60.00000000000027,30.000000000000135,-20.00000000000009,-0.0,-90.0000000000004,-100.00000000000044,-70.00000000000031
-0.0,-60.00000000000027,-50.00000000000022,30.000000000000135,20.00000000000009,-50.00000000000022,50.00000000000022,30.000000000000135,20.00000000000009,-70.00000000000031,-90.0000000000004,-60.00000000000027
-0.0,-60.00000000000027,-50.00000000000022,20.00000000000009,20.00000000000009,-50.00000000000022,70.00000000000031,70.00000000000031,40.00000000000018,-50.00000000000022,-80.00000000000036,-50.00000000000022
-0.0,-50.00000000000022,-40.00000000000018,20.00000000000009,10.000000000000044,-40.00000000000018,80.00000000000036,90.0000000000004,50.00000000000022,-40.00000000000018,-80.00000000000036,-50.00000000000022
-0.0,-40.00000000000018,-30.000000000000135,20.00000000000009,10.000000000000044,-30.000000000000135,90.0000000000004,100.00000000000044,60.00000000000027,-40.00000000000018,-80.00000000000036,-50.00000000000022
-0.0,-40.00000000000018,-20.00000000000009,20.00000000000009,-0.0,-30.000000000000135,90.0000000000004,110.00000000000048,70.00000000000031,-30.000000000000135,-80.00000000000036,-50.00000000000022
-10.000000000000044,-30.000000000000135,-20.00000000000009,20.00000000000009,-0.0,-20.00000000000009,100.00000000000044,120.00000000000054,80.00000000000036,-30.000000000000135,-80.00000000000036,-50.00000000000022
-10.000000000000044,-30.000000000000135,-10.000000000000044,10.000000000000044,-0.0,-10.000000000000044,100.00000000000044,130.00000000000057,90.0000000000004,-20.00000000000009,-80.00000000000036,-40.00000000000018
-10.000000000000044,-20.00000000000009,-0.0,10.000000000000044,-0.0,-10.000000000000044,100.00000000000044,150.00000000000065,100.00000000000044,-10.000000000000044,-70.00000000000031,-30.000000000000135
-0.0,-20.00000000000009,-0.0,10.000000000000044,-0.0,-10.000000000000044,110.00000000000048,160.0000000000007,110.00000000000048,-10.000000000000044,-60.00000000000027,-30.000000000000135
-0.0,-10.000000000000044,-0.0,-0.0,-0.0,-0.0,110.00000000000048,170.00000000000077,120.00000000000054,-0.0,-60.00000000000027,-20.00000000000009
-0.0,-10.000000000000044,-10.000000000000044,-0.0,-0.0,-10.000000000000044,120.00000000000054,180.0000000000008,130.00000000000057,-0.0,-60.00000000000027,-20.00000000000009
-0.0,-10.000000000000044,-0.0,-0.0,-0.0,-0.0,120.00000000000054,190.00000000000085,140.00000000000063,-0.0,-60.00000000000027,-20.00000000000009
-0.0,-0.0,-0.0,-0.0,-0.0,-0.0,130.00000000000057,200.00000000000088,150.00000000000065,-0.0,-50.00000000000022,-20.00000000000009
-0.0,-0.0,-0.0,-0.0,-0.0,-0.0,130.00000000000057,210.00000000000094,150.00000000000065,10.000000000000044,-50.00000000000022,-30.000000000000135
-0.0,-0.0,-0.0,-0.0,-0.0,-0.0,130.00000000000057,220.00000000000097,160.0000000000007,10.000000000000044,-50.00000000000022,-30.000000000000135
-0.0,-0.0,-0.0,-0.0,-0.0,-0.0,140.00000000000063,230.00000000000102,170.00000000000077,20.00000000000009,-50.00000000000022,-30.000000000000135
-0.0,-0.0,10.000000000000044,-0.0,-10.000000000000044,10.000000000000044,140.00000000000063,240.00000000000108,190.00000000000085,30.000000000000135,-50.00000000000022,-30.000000000000135
-10.000000000000044,-0.0,20.00000000000009,-0.0,-10.000000000000044,10.000000000000044,150.00000000000065,260.00000000000114,200.00000000000088,40.00000000000018,-40.00000000000018,-20.00000000000009
-10.000000000000044,-0.0,20.00000000000009,-0.0,-10.000000000000044,10.000000000000044,150.00000000000065,270.0000000000012,210.00000000000094,50.00000000000022,-40.00000000000018,-10.000000000000044
-0.0,10.000000000000044,20.00000000000009,-0.0,-10.000000000000044,10.000000000000044,160.0000000000007,280.00000000000125,220.00000000000097,60.00000000000027,-30.000000000000135,-0.0
-0.0,10.000000000000044,20.00000000000009,-0.0,-10.000000000000044,20.00000000000009,160.0000000000007,300.0000000000013,240.00000000000108,70.00000000000031,-20.00000000000009,-0.0
-0.0,10.000000000000044,20.00000000000009,-10.000000000000044,-10.000000000000044,20.00000000000009,170.00000000000077,320.0000000000014,260.00000000000114,80.00000000000036,-20.00000000000009,-0.0
-0.0,20.00000000000009,30.000000000000135,-10.000000000000044,-10.000000000000044,30.000000000000135,180.0000000000008,340.00000000000153,270.0000000000012,90.0000000000004,-10.000000000000044,-0.0
-0.0,30.000000000000135,30.000000000000135,-20.00000000000009,-10.000000000000044,30.000000000000135,190.00000000000085,360.0000000000016,290.0000000000013,100.00000000000044,-0.0,-0.0
-0.0,40.00000000000018,40.00000000000018,-30.000000000000135,-10.000000000000044,40.00000000000018,190.00000000000085,380.0000000000017,310.00000000000136,110.00000000000048,-0.0,-0.0
-0.0,50.00000000000022,50.00000000000022,-30.000000000000135,-20.00000000000009,50.00000000000022,200.00000000000088,400.00000000000176,320.0000000000014,120.00000000000054,-0.0,-0.0
-0.0,60.00000000000027,60.00000000000027,-40.00000000000018,-20.00000000000009,60.00000000000027,210.00000000000094,420.0000000000019,340.00000000000153,130.00000000000057,-0.0,-0.0
10.000000000000044,70.00000000000031,70.00000000000031,-50.00000000000022,-20.00000000000009,70.00000000000031,220.00000000000097,450.000000000002,360.0000000000016,140.00000000000063,-0.0,-0.0
10.000000000000044,80.00000000000036,70.00000000000031,-60.00000000000027,-20.00000000000009,80.00000000000036,220.00000000000097,470.0000000000021,380.0000000000017,150.00000000000065,-0.0,-0.0
20.00000000000009,90.0000000000004,80.00000000000036,-60.00000000000027,-30.000000000000135,90.0000000000004,230.00000000000102,490.00000000000216,390.0000000000017,160.0000000000007,10.000000000000044,-0.0
20.00000000000009,100.00000000000044,90.0000000000004,-70.00000000000031,-30.000000000000135,100.00000000000044,240.00000000000108,510.0000000000023,410.0000000000018,180.0000000000008,10.000000000000044,10.000000000000044
30.000000000000135,110.00000000000048,90.0000000000004,-80.00000000000036,-30.000000000000135,100.00000000000044,250.0000000000011,530.0000000000024,420.0000000000019,190.00000000000085,20.00000000000009,10.000000000000044
30.000000000000135,120.00000000000054,90.0000000000004,-80.00000000000036,-20.00000000000009,110.00000000000048,260.00000000000114,550.0000000000024,440.00000000000193,200.00000000000088,20.00000000000009,20.00000000000009
30.000000000000135,130.00000000000057,100.00000000000044,-90.0000000000004,-20.00000000000009,110.00000000000048,260.00000000000114,570.0000000000025,450.000000000002,210.00000000000094,30.000000000000135,20.00000000000009
40.00000000000018,130.00000000000057,100.00000000000044,-90.0000000000004,-20.00000000000009,120.00000000000054,270.0000000000012,590.0000000000026,470.0000000000021,210.00000000000094,40.00000000000018,20.00000000000009
50.00000000000022,140.00000000000063,90.0000000000004,-100.00000000000044,-20.00000000000009,120.00000000000054,280.00000000000125,610.0000000000027,480.00000000000216,220.00000000000097,40.00000000000018,20.00000000000009
50.00000000000022,140.00000000000063,90.0000000000004,-100.00000000000044,-20.00000000000009,120.00000000000054,280.00000000000125,620.0000000000027,490.00000000000216,230.00000000000102,40.00000000000018,30.000000000000135
50.00000000000022,150.00000000000065,90.0000000000004,-100.00000000000044,-10.000000000000044,120.00000000000054,290.0000000000013,630.0000000000028,490.00000000000216,240.00000000000108,50.00000000000022,30.000000000000135
60.00000000000027,150.00000000000065,80.00000000000036,-100.00000000000044,-10.000000000000044,110.00000000000048,300.0000000000013,640.0000000000028,500.0000000000022,240.00000000000108,50.00000000000022,30.000000000000135
60.00000000000027,140.00000000000063,70.00000000000031,-100.00000000000044,-0.0,100.00000000000044,300.0000000000013,640.0000000000028,490.00000000000216,240.00000000000108,50.00000000000022,30.000000000000135
60.00000000000027,130.00000000000057,60.00000000000027,-90.0000000000004,-0.0,90.0000000000004,290.0000000000013,630.0000000000028,480.00000000000216,240.00000000000108,50.00000000000022,40.00000000000018
60.00000000000027,120.00000000000054,40.00000000000018,-90.0000000000004,-0.0,70.00000000000031,290.0000000000013,620.0000000000027,470.0000000000021,240.00000000000108,60.00000000000027,40.00000000000018
60.00000000000027,100.00000000000044,30.000000000000135,-80.00000000000036,-0.0,60.00000000000027,280.00000000000125,600.0000000000026,450.000000000002,230.00000000000102,50.00000000000022,40.00000000000018
50.00000000000022,90.0000000000004,20.00000000000009,-70.00000000000031,10.000000000000044,40.00000000000018,260.00000000000114,580.0000000000026,430.00000000000193,220.00000000000097,50.00000000000022,40.00000000000018
40.00000000000018,70.00000000000031,10.000000000000044,-50.00000000000022,10.000000000000044,30.000000000000135,250.0000000000011,540.0000000000024,400.00000000000176,210.00000000000094,50.00000000000022,40.00000000000018
30.000000000000135,50.00000000000022,-0.0,-40.00000000000018,10.000000000000044,10.000000000000044,230.00000000000102,500.0000000000022,370.00000000000165,190.00000000000085,50.00000000000022,50.00000000000022
20.00000000000009,30.000000000000135,-0.0,-30.000000000000135,10.000000000000044,-0.0,200.00000000000088,460.00000000000205,330.0000000000015,180.0000000000008,50.00000000000022,50.00000000000022
10.000000000000044,20.00000000000009,-0.0,-10.000000000000044,10.000000000000044,-0.0,180.0000000000008,420.0000000000019,300.0000000000013,160.0000000000007,50.00000000000022,50.00000000000022
-0.0,-0.0,-10.000000000000044,-0.0,-0.0,-0.0,160.0000000000007,370.00000000000165,270.0000000000012,150.00000000000065,50.00000000000022,50.00000000000022
-0.0,-0.0,-10.000000000000044,-0.0,-0.0,-0.0,140.00000000000063,330.0000000000015,230.00000000000102,130.00000000000057,50.00000000000022,50.00000000000022
-0.0,-0.0,-10.000000000000044,-0.0,-0.0,-10.000000000000044,110.00000000000048,280.00000000000125,200.00000000000088,110.00000000000048,40.00000000000018,50.00000000000022
-0.0,-10.000000000000044,-10.000000000000044,-0.0,-0.0,-10.000000000000044,100.00000000000044,240.00000000000108,180.0000000000008,100.00000000000044,40.00000000000018,50.00000000000022
-0.0,-20.00000000000009,-10.000000000000044,10.000000000000044,-0.0,-20.00000000000009,80.00000000000036,200.00000000000088,150.00000000000065,90.0000000000004,40.00000000000018,50.00000000000022
-0.0,-20.00000000000009,-20.00000000000009,10.000000000000044,-0.0,-20.00000000000009,70.00000000000031,170.00000000000077,120.00000000000054,80.00000000000036,30.000000000000135,50.00000000000022
-0.0,-20.00000000000009,-20.00000000000009,10.000000000000044,-0.0,-20.00000000000009,50.00000000000022,140.00000000000063,100.00000000000044,60.00000000000027,30.000000000000135,40.00000000000018
-0.0,-30.000000000000135,-20.00000000000009,10.000000000000044,-0.0,-20.00000000000009,50.00000000000022,120.00000000000054,90.0000000000004,50.00000000000022,20.00000000000009,40.00000000000018
-0.0,-30.000000000000135,-20.00000000000009,10.000000000000044,-0.0,-20.00000000000009,40.00000000000018,100.00000000000044,80.00000000000036,50.00000000000022,20.00000000000009,30.000000000000135
-10.000000000000044,-30.000000000000135,-20.00000000000009,10.000000000000044,-0.0,-20.00000000000009,40.00000000000018,80.00000000000036,60.00000000000027,40.00000000000018,20.00000000000009,30.000000000000135
-10.000000000000044,-30.000000000000135,-20.00000000000009,20.00000000000009,-0.0,-20.00000000000009,40.00000000000018,70.00000000000031,60.00000000000027,30.000000000000135,10.000000000000044,30.000000000000135
-10.000000000000044,-30.000000000000135,-10.000000000000044,20.00000000000009,-0.0,-20.00000000000009,40.00000000000018,60.00000000000027,50.00000000000022,30.000000000000135,10.000000000000044,30.000000000000135
-20.00000000000009,-30.000000000000135,-10.000000000000044,20.00000000000009,-0.0,-20.00000000000009,30.000000000000135,50.00000000000022,40.00000000000018,20.00000000000009,10.000000000000044,20.00000000000009
-30.000000000000135,-30.000000000000135,-0.0,30.000000000000135,-20.00000000000009,-10.000000000000044,30.000000000000135,40.00000000000018,30.000000000000135,10.000000000000044,-0.0,20.00000000000009
-40.00000000000018,-30.000000000000135,10.000000000000044,30.000000000000135,-30.000000000000135,-0.0,30.000000000000135,30.000000000000135,20.00000000000009,-0.0,-0.0,20.00000000000009
-40.00000000000018,-20.00000000000009,20.00000000000009,30.000000000000135,-30.000000000000135,-0.0,30.000000000000135,20.00000000000009,10.000000000000044,-0.0,-0.0,10.000000000000044
-30.000000000000135,-20.00000000000009,30.000000000000135,10.000000000000044,-30.000000000000135,10.000000000000044,20.00000000000009,20.00000000000009,10.000000000000044,-0.0,-0.0,10.000000000000044
-0.0,-0.0,20.00000000000009,-10.000000000000044,-10.000000000000044,10.000000000000044,20.00000000000009,10.000000000000044,-0.0,-0.0,-0.0,-0.0
50.00000000000022,10.000000000000044,-0.0,-60.00000000000027,20.00000000000009,20.00000000000009,20.00000000000009,10.000000000000044,-0.0,-0.0,-0.0,-0.0
130.00000000000057,50.00000000000022,-40.00000000000018,-130.00000000000057,80.00000000000036,30.000000000000135,10.000000000000044,-0.0,-0.0,-0.0,-0.0,-0.0
240.00000000000108,100.00000000000044,-80.00000000000036,-210.00000000000094,160.0000000000007,30.000000000000135,10.000000000000044,-0.0,-0.0,-0.0,-0.0,-0.0
350.00000000000153,150.00000000000065,-140.00000000000063,-290.0000000000013,240.00000000000108,30.000000000000135,10.000000000000044,-0.0,-0.0,-0.0,-0.0,-0.0
450.000000000002,210.00000000000094,-200.00000000000088,-360.0000000000016,320.0000000000014,20.00000000000009,10.000000000000044,-0.0,-0.0,-0.0,-0.0,-0.0
520.0000000000023,250.0000000000011,-260.00000000000114,-400.00000000000176,380.0000000000017,-0.0,10.000000000000044,-0.0,-0.0,-0.0,-0.0,-0.0
550.0000000000024,260.00000000000114,-310.00000000000136,-400.00000000000176,430.00000000000193,-40.00000000000018,10.000000000000044,-0.0,-0.0,-0.0,-0.0,-0.0
530.0000000000024,230.00000000000102,-350.00000000000153,-360.0000000000016,440.00000000000193,-80.00000000000036,10.000000000000044,-0.0,-0.0,-0.0,-0.0,-0.0
480.00000000000216,180.0000000000008,-370.00000000000165,-300.0000000000013,420.0000000000019,-130.00000000000057,10.000000000000044,-0.0,-0.0,-0.0,-0.0,-0.0
390.0000000000017,110.00000000000048,-350.00000000000153,-220.00000000000097,370.00000000000165,-160.0000000000007,10.000000000000044,-0.0,-0.0,-0.0,-0.0,-0.0
290.0000000000013,40.00000000000018,-320.0000000000014,-130.00000000000057,300.0000000000013,-170.00000000000077,10.000000000000044,-0.0,-0.0,-0.0,-0.0,-0.0
190.00000000000085,-30.000000000000135,-270.0000000000012,-50.00000000000022,230.00000000000102,-180.0000000000008,10.000000000000044,-0.0,-0.0,-0.0,-0.0,-0.0
100.00000000000044,-80.00000000000036,-220.00000000000097,10.000000000000044,150.00000000000065,-170.00000000000077,10.000000000000044,-0.0,-0.0,-0.0,-0.0,-0.0
20.00000000000009,-120.00000000000054,-170.00000000000077,50.00000000000022,90.0000000000004,-150.00000000000065,10.000000000000044,-0.0,-0.0,-0.0,-0.0,-0.0
-30.000000000000135,-140.00000000000063,-120.00000000000054,80.00000000000036,40.00000000000018,-130.00000000000057,10.000000000000044,-0.0,-0.0,-0.0,-0.0,-0.0
-60.00000000000027,-140.00000000000063,-80.00000000000036,90.0000000000004,-0.0,-110.00000000000048,10.000000000000044,-0.0,-0.0,-0.0,-0.0,-0.0
-70.00000000000031,-140.00000000000063,-50.00000000000022,100.00000000000044,-10.000000000000044,-90.0000000000004,10.000000000000044,-0.0,-0.0,-0.0,-0.0,-0.0
-70.00000000000031,-120.00000000000054,-30.000000000000135,80.00000000000036,-20.00000000000009,-70.00000000000031,10.000000000000044,-0.0,-0.0,-0.0,-0.0,-0.0
-70.00000000000031,-110.00000000000048,-10.000000000000044,70.00000000000031,-20.00000000000009,-50.00000000000022,10.000000000000044,-0.0,-0.0,-0.0,-0.0,-0.0
-60.00000000000027,-90.0000000000004,-10.000000000000044,60.00000000000027,-20.00000000000009,-40.00000000000018,10.000000000000044,-0.0,-0.0,-0.0,-0.0,-0.0
-50.00000000000022,-80.00000000000036,-10.000000000000044,60.00000000000027,-20.00000000000009,-40.00000000000018,10.000000000000044,-0.0,-0.0,-0.0,-0.0,-0.0
-50.00000000000022,-70.00000000000031,-10.000000000000044,60.00000000000027,-10.000000000000044,-40.00000000000018,10.000000000000044,-0.0,-0.0,-0.0,-0.0,-0.0
-50.00000000000022,-70.00000000000031,-20.00000000000009,60.00000000000027,-10.000000000000044,-40.00000000000018,10.000000000000044,-0.0,-0.0,-0.0,-0.0,-0.0
-50.00000000000022,-70.00000000000031,-20.00000000000009,60.00000000000027,-10.000000000000044,-40.00000000000018,-0.0,-0.0,-0.0,-0.0,-0.0,-0.0
-50.00000000000022,-70.00000000000031,-20.00000000000009,60.00000000000027,-10.000000000000044,-40.00000000000018,-0.0,-0.0,-0.0,-0.0,-0.0,-0.0
-50.00000000000022,-70.00000000000031,-20.00000000000009,60.00000000000027,-10.000000000000044,-40.00000000000018,-0.0,-0.0,-0.0,-0.0,-0.0,-0.0
-50.00000000000022,-70.00000000000031,-20.00000000000009,60.00000000000027,-10.000000000000044,-40.00000000000018,-0.0,-0.0,-0.0,-0.0,-0.0,-0.0
-50.00000000000022,-70.00000000000031,-10.000000000000044,60.00000000000027,-10.000000000000044,-40.00000000000018,-0.0,-10.000000000000044,-0.0,-0.0,-0.0,-0.0
-50.00000000000022,-70.00000000000031,-10.000000000000044,60.00000000000027,-10.000000000000044,-40.00000000000018,-0.0,-10.000000000000044,-0.0,-0.0,-0.0,-0.0
-50.00000000000022,-70.00000000000031,-10.000000000000044,50.00000000000022,-10.000000000000044,-40.00000000000018,-0.0,-10.000000000000044,-0.0,-0.0,-0.0,-0.0
-40.00000000000018,-60.00000000000027,-10.000000000000044,50.00000000000022,-10.000000000000044,-40.00000000000018,-0.0,-10.000000000000044,-0.0,-0.0,-0.0,-0.0
-40.00000000000018,-60.00000000000027,-20.00000000000009,50.00000000000022,-10.000000000000044,-40.00000000000018,-0.0,-10.000000000000044,-0.0,10.000000000000044,-0.0,-0.0
-40.00000000000018,-60.00000000000027,-20.00000000000009,50.00000000000022,-0.0,-40.00000000000018,-0.0,-10.000000000000044,-0.0,10.000000000000044,-0.0,-0.0
-40.00000000000018,-60.00000000000027,-20.00000000000009,50.00000000000022,-0.0,-40.00000000000018,-0.0,-10.000000000000044,-0.0,10.000000000000044,-0.0,10.000000000000044
-40.00000000000018,-60.00000000000027,-20.00000000000009,50.00000000000022,-0.0,-40.00000000000018,-0.0,-10.000000000000044,-0.0,10.000000000000044,10.000000000000044,10.000000000000044
-40.00000000000018,-60.00000000000027,-20.00000000000009,50.00000000000022,-0.0,-40.00000000000018,-0.0,-10.000000000000044,-0.0,10.000000000000044,10.000000000000044,10.000000000000044
-30.000000000000135,-60.00000000000027,-20.00000000000009,50.00000000000022,-0.0,-40.00000000000018,-0.0,-10.000000000000044,-0.0,20.00000000000009,10.000000000000044,10.000000000000044
-30.000000000000135,-60.00000000000027,-20.00000000000009,40.00000000000018,-0.0,-40.00000000000018,-0.0,-10.000000000000044,-0.0,20.00000000000009,10.000000000000044,20.00000000000009
-30.000000000000135,-60.00000000000027,-20.00000000000009,40.00000000000018,-0.0,-40.00000000000018,-0.0,-10.000000000000044,-0.0,20.00000000000009,10.000000000000044,20.00000000000009
-30.000000000000135,-60.00000000000027,-20.00000000000009,40.00000000000018,-0.0,-40.00000000000018,-10.000000000000044,-20.00000000000009,-0.0,20.00000000000009,10.000000000000044,20.00000000000009
-20.00000000000009,-50.00000000000022,-20.00000000000009,40.00000000000018,-0.0,-40.00000000000018,-20.00000000000009,-30.000000000000135,-0.0,20.00000000000009,10.000000000000044,20.00000000000009
-20.00000000000009,-50.00000000000022,-20.00000000000009,30.000000000000135,-0.0,-30.000000000000135,-30.000000000000135,-40.00000000000018,-10.000000000000044,10.000000000000044,10.000000000000044,20.00000000000009
-20.00000000000009,-50.00000000000022,-20.00000000000009,30.000000000000135,-0.0,-30.000000000000135,-40.00000000000018,-50.00000000000022,-20.00000000000009,10.000000000000044,10.000000000000044,20.00000000000009
-20.00000000000009,-50.00000000000022,-10.000000000000044,30.000000000000135,-0.0,-30.000000000000135,-60.00000000000027,-70.00000000000031,-30.000000000000135,-0.0,10.000000000000044,20.00000000000009
-20.00000000000009,-40.00000000000018,-10.000000000000044,30.000000000000135,-0.0,-20.00000000000009,-70.00000000000031,-80.00000000000036,-30.000000000000135,-0.0,-0.0,20.00000000000009
-20.00000000000009,-40.00000000000018,-10.000000000000044,20.00000000000009,-0.0,-20.00000000000009,-80.00000000000036,-90.0000000000004,-40.00000000000018,-0.0,-0.0,30.000000000000135
-20.00000000000009,-30.000000000000135,-0.0,20.00000000000009,-0.0,-20.00000000000009,-90.0000000000004,-100.00000000000044,-40.00000000000018,-0.0,-0.0,30.000000000000135
-20.00000000000009,-30.000000000000135,-0.0,20.00000000000009,-10.000000000000044,-10.000000000000044,-100.00000000000044,-100.00000000000044,-50.00000000000022,-0.0,-0.0,30.000000000000135
-20.00000000000009,-20.00000000000009,-0.0,10.000000000000044,-10.000000000000044,-0.0,-100.00000000000044,-100.00000000000044,-50.00000000000022,-0.0,-0.0,30.000000000000135
-10.000000000000044,-10.000000000000044,-0.0,10.000000000000044,-10.000000000000044,-0.0,-100.00000000000044,-110.00000000000048,-50.00000000000022,-0.0,-0.0,20.00000000000009
-10.000000000000044,-10.000000000000044,-0.0,-0.0,-10.000000000000044,-0.0,-100.00000000000044,-110.00000000000048,-60.00000000000027,-10.000000000000044,-0.0,20.00000000000009
-10.000000000000044,-0.0,-0.0,-0.0,-10.000000000000044,-0.0,-100.00000000000044,-110.00000000000048,-60.00000000000027,-10.000000000000044,-0.0,10.000000000000044
-0.0,-0.0,-0.0,-0.0,-0.0,-0.0,-90.0000000000004,-100.00000000000044,-60.00000000000027,-20.00000000000009,-0.0,10.000000000000044
-0.0,-0.0,10.000000000000044,-0.0,-10.000000000000044,10.000000000000044,-90.0000000000004,-100.00000000000044,-70.00000000000031,-20.00000000000009,-10.000000000000044,-0.0
-0.0,-0.0,20.00000000000009,-0.0,-10.000000000000044,10.000000000000044,-80.00000000000036,-100.00000000000044,-70.00000000000031,-30.000000000000135,-10.000000000000044,-0.0
-10.000000000000044,10.000000000000044,30.000000000000135,-0.0,-20.00000000000009,20.00000000000009,-80.00000000000036,-100.00000000000044,-80.00000000000036,-40.00000000000018,-10.000000000000044,-0.0
-10.000000000000044,10.000000000000044,30.000000000000135,-0.0,-20.00000000000009,20.00000000000009,-70.00000000000031,-110.00000000000048,-80.00000000000036,-40.00000000000018,-20.00000000000009,-0.0
-10.000000000000044,20.00000000000009,40.00000000000018,-10.000000000000044,-20.00000000000009,30.000000000000135,-70.00000000000031,-110.00000000000048,-90.0000000000004,-50.00000000000022,-20.00000000000009,-10.000000000000044
-10.000000000000044,30.000000000000135,50.00000000000022,-10.000000000000044,-30.000000000000135,40.00000000000018,-70.00000000000031,-110.00000000000048,-90.0000000000004,-60.00000000000027,-30.000000000000135,-10.000000000000044
-0.0,40.00000000000018,50.00000000000022,-10.000000000000044,-30.000000000000135,50.00000000000022,-70.00000000000031,-120.00000000000054,-100.00000000000044,-60.00000000000027,-30.000000000000135,-20.00000000000009
-0.0,40.00000000000018,50.00000000000022,-20.00000000000009,-30.000000000000135,50.00000000000022,-70.00000000000031,-120.00000000000054,-100.00000000000044,-70.00000000000031,-40.00000000000018,-20.00000000000009
-0.0,50.00000000000022,60.00000000000027,-30.000000000000135,-20.00000000000009,60.00000000000027,-70.00000000000031,-130.00000000000057,-100.00000000000044,-70.00000000000031,-40.00000000000018,-30.000000000000135
-0.0,60.00000000000027,60.00000000000027,-30.000000000000135,-20.00000000000009,60.00000000000027,-70.00000000000031,-130.00000000000057,-100.00000000000044,-70.00000000000031,-40.00000000000018,-30.000000000000135
10.000000000000044,60.00000000000027,50.00000000000022,-40.00000000000018,-20.00000000000009,60.00000000000027,-70.00000000000031,-130.00000000000057,-100.00000000000044,-70.00000000000031,-40.00000000000018,-30.000000000000135
10.000000000000044,70.00000000000031,50.00000000000022,-40.00000000000018,-10.000000000000044,60.00000000000027,-70.00000000000031,-130.00000000000057,-100.00000000000044,-70.00000000000031,-40.00000000000018,-30.000000000000135
10.000000000000044,70.00000000000031,50.00000000000022,-40.00000000000018,-10.000000000000044,60.00000000000027,-60.00000000000027,-130.00000000000057,-100.00000000000044,-70.00000000000031,-40.00000000000018,-30.000000000000135
20.00000000000009,70.00000000000031,50.00000000000022,-40.00000000000018,-10.000000000000044,60.00000000000027,-60.00000000000027,-130.00000000000057,-100.00000000000044,-70.00000000000031,-40.00000000000018,-30.000000000000135
10.000000000000044,70.00000000000031,50.00000000000022,-40.00000000000018,-10.000000000000044,60.00000000000027,-60.00000000000027,-120.00000000000054,-100.00000000000044,-60.00000000000027,-40.00000000000018,-30.000000000000135
10.000000000000044,70.00000000000031,40.00000000000018,-40.00000000000018,-10.000000000000044,50.00000000000022,-60.00000000000027,-120.00000000000054,-90.0000000000004,-60.00000000000027,-30.000000000000135,-20.00000000000009
10.000000000000044,60.00000000000027,30.000000000000135,-30.000000000000135,-0.0,40.00000000000018,-50.00000000000022,-120.00000000000054,-90.0000000000004,-60.00000000000027,-30.000000000000135,-20.00000000000009
10.000000000000044,50.00000000000022,20.00000000000009,-30.000000000000135,-0.0,30.000000000000135,-40.00000000000018,-110.00000000000048,-80.00000000000036,-60.00000000000027,-40.00000000000018,-30.000000000000135
10.000000000000044,40.00000000000018,10.000000000000044,-30.000000000000135,-0.0,20.00000000000009,-20.00000000000009,-90.0000000000004,-60.00000000000027,-40.00000000000018,-40.00000000000018,-30.000000000000135
10.000000000000044,30.000000000000135,10.000000000000044,-20.00000000000009,-0.0,10.000000000000044,-0.0,-60.00000000000027,-20.00000000000009,-10.000000000000044,-30.000000000000135,-30.000000000000135
10.000000000000044,20.00000000000009,-0.0,-10.000000000000044,-0.0,10.000000000000044,-0.0,-30.000000000000135,40.00000000000018,50.00000000000022,-10.000000000000044,-20.00000000000009
-0.0,20.00000000000009,-0.0,-10.000000000000044,-0.0,-0.0,20.00000000000009,10.000000000000044,130.00000000000057,150.00000000000065,40.00000000000018,10.000000000000044
-0.0,10.000000000000044,-0.0,-0.0,-0.0,-0.0,10.000000000000044,70.00000000000031,240.00000000000108,290.0000000000013,120.00000000000054,80.00000000000036
-0.0,-0.0,-0.0,-0.0,-0.0,-0.0,-10.000000000000044,130.00000000000057,350.00000000000153,430.00000000000193,230.00000000000102,170.00000000000077
-0.0,-0.0,-10.000000000000044,-0.0,-0.0,-0.0,-50.00000000000022,180.0000000000008,440.00000000000193,560.0000000000025,360.0000000000016,280.00000000000125
-0.0,-0.0,-10.000000000000044,-0.0,-0.0,-10.000000000000044,-120.00000000000054,190.00000000000085,490.00000000000216,650.0000000000028,480.00000000000216,390.0000000000017
-0.0,-0.0,-20.00000000000009,-0.0,10.000000000000044,-10.000000000000044,-200.00000000000088,150.00000000000065,450.000000000002,670.000000000003,560.0000000000025,480.00000000000216
10.000000000000044,-10.000000000000044,-20.00000000000009,-0.0,10.000000000000044,-10.000000000000044,-300.0000000000013,70.00000000000031,350.00000000000153,600.0000000000026,590.0000000000026,540.0000000000024
-0.0,-10.000000000000044,-20.00000000000009,-0.0,10.000000000000044,-20.00000000000009,-390.0000000000017,-60.00000000000027,180.0000000000008,460.00000000000205,550.0000000000024,550.0000000000024
-0.0,-10.000000000000044,-20.00000000000009,-0.0,10.000000000000044,-20.00000000000009,-470.0000000000021,-220.00000000000097,-20.00000000000009,270.0000000000012,460.00000000000205,500.0000000000022
-0.0,-10.000000000000044,-20.00000000000009,-0.0,10.000000000000044,-20.00000000000009,-520.0000000000023,-400.00000000000176,-220.00000000000097,60.00000000000027,330.0000000000015,410.0000000000018
-0.0,-10.000000000000044,-10.000000000000044,-0.0,-0.0,-10.000000000000044,-550.0000000000024,-560.0000000000025,-400.00000000000176,-140.00000000000063,170.00000000000077,300.0000000000013
-0.0,-10.000000000000044,-10.000000000000044,-0.0,-0.0,-10.000000000000044,-540.0000000000024,-690.0000000000031,-530.0000000000024,-290.0000000000013,30.000000000000135,180.0000000000008
-0.0,-10.000000000000044,-10.000000000000044,10.000000000000044,-0.0,-10.000000000000044,-510.0000000000023,-760.0000000000034,-610.0000000000027,-400.00000000000176,-90.0000000000004,70.00000000000031
-10.000000000000044,-10.000000000000044,-0.0,10.000000000000044,-0.0,-10.000000000000044,-460.00000000000205,-770.0000000000034,-620.0000000000027,-450.000000000002,-180.0000000000008,-10.000000000000044
-10.000000000000044,-10.000000000000044,-0.0,10.000000000000044,-0.0,-10.000000000000044,-390.0000000000017,-720.0000000000032,-570.0000000000025,-440.00000000000193,-230.00000000000102,-70.00000000000031
-10.000000000000044,-10.000000000000044,-0.0,10.000000000000044,-0.0,-0.0,-310.00000000000136,-640.0000000000028,-490.00000000000216,-390.0000000000017,-250.0000000000011,-110.00000000000048
-10.000000000000044,-10.000000000000044,-0.0,10.000000000000044,-0.0,-10.000000000000044,-230.00000000000102,-520.0000000000023,-390.0000000000017,-320.0000000000014,-230.00000000000102,-120.00000000000054
-10.000000000000044,-20.00000000000009,-0.0,10.000000000000044,-0.0,-10.000000000000044,-160.0000000000007,-400.00000000000176,-290.0000000000013,-240.00000000000108,-200.00000000000088,-120.00000000000054
-10.000000000000044,-20.00000000000009,-0.0,20.00000000000009,-0.0,-10.000000000000044,-100.00000000000044,-280.00000000000125,-190.00000000000085,-170.00000000000077,-160.0000000000007,-110.00000000000048
-10.000000000000044,-20.00000000000009,-0.0,20.00000000000009,-0.0,-10.000000000000044,-50.00000000000022,-180.0000000000008,-110.00000000000048,-110.00000000000048,-120.00000000000054,-90.0000000000004
-10.000000000000044,-20.00000000000009,-0.0,10.000000000000044,-0.0,-10.000000000000044,-10.000000000000044,-100.00000000000044,-60.00000000000027,-60.00000000000027,-90.0000000000004,-70.00000000000031
-10.000000000000044,-20.00000000000009,-0.0,10.000000000000044,-0.0,-10.000000000000044,-0.0,-40.00000000000018,-30.000000000000135,-40.00000000000018,-70.00000000000031,-60.00000000000027
-10.000000000000044,-20.00000000000009,-0.0,20.00000000000009,-0.0,-10.000000000000044,10.000000000000044,-0.0,-10.000000000000044,-30.000000000000135,-70.00000000000031,-50.00000000000022
-20.00000000000009,-20.00000000000009,-0.0,20.00000000000009,-0.0,-10.000000000000044,20.00000000000009,10.000000000000044,-0.0,-20.00000000000009,-70.00000000000031,-50.00000000000022
-20.00000000000009,-20.00000000000009,-0.0,20.00000000000009,-10.000000000000044,-0.0,30.000000000000135,20.00000000000009,-0.0,-10.000000000000044,-70.00000000000031,-50.00000000000022
-20.00000000000009,-20.00000000000009,-0.0,20.00000000000009,-10.000000000000044,-0.0,40.00000000000018,30.000000000000135,-0.0,-10.000000000000044,-80.00000000000036,-50.00000000000022
-20.00000000000009,-10.000000000000044,10.000000000000044,20.00000000000009,-10.000000000000044,-0.0,40.00000000000018,40.00000000000018,-0.0,-0.0,-80.00000000000036,-40.00000000000018
-20.00000000000009,-10.000000000000044,-0.0,10.000000000000044,-10.000000000000044,-0.0,40.00000000000018,50.00000000000022,10.000000000000044,-0.0,-80.00000000000036,-40.00000000000018
-20.00000000000009,-10.000000000000044,10.000000000000044,10.000000000000044,-10.000000000000044,-0.0,40.00000000000018,50.00000000000022,20.00000000000009,-0.0,-90.0000000000004,-40.00000000000018
-20.00000000000009,-10.000000000000044,10.000000000000044,10.000000000000044,-10.000000000000044,-0.0,50.00000000000022,60.00000000000027,20.00000000000009,-0.0,-90.0000000000004,-40.00000000000018
-20.00000000000009,-10.000000000000044,10.000000000000044,10.000000000000044,-10.000000000000044,-0.0,50.00000000000022,70.00000000000031,30.000000000000135,10.000000000000044,-90.0000000000004,-30.000000000000135
-20.00000000000009,-10.000000000000044,10.000000000000044,10.000000000000044,-10.000000000000044,-0.0,50.00000000000022,80.00000000000036,40.00000000000018,20.00000000000009,-90.0000000000004,-30.000000000000135
-20.00000000000009,-0.0,10.000000000000044,10.000000000000044,-10.000000000000044,-0.0,60.00000000000027,90.0000000000004,40.00000000000018,20.00000000000009,-90.0000000000004,-30.000000000000135
-20.00000000000009,-0.0,10.000000000000044,-0.0,-10.000000000000044,-0.0,60.00000000000027,100.00000000000044,50.00000000000022,30.000000000000135,-80.00000000000036,-30.000000000000135
-10.000000000000044,-0.0,10.000000000000044,-0.0,-10.000000000000044,-0.0,60.00000000000027,110.00000000000048,60.00000000000027,30.000000000000135,-80.00000000000036,-20.00000000000009
-10.000000000000044,-0.0,10.000000000000044,-0.0,-10.000000000000044,-0.0,70.00000000000031,120.00000000000054,70.00000000000031,40.00000000000018,-80.00000000000036,-20.00000000000009
-0.0,-0.0,-0.0,-0.0,-0.0,-0.0,70.00000000000031,130.00000000000057,80.00000000000036,50.00000000000022,-70.00000000000031,-20.00000000000009
-0.0,-0.0,-0.0,-0.0,-0.0,-0.0,70.00000000000031,150.00000000000065,90.0000000000004,50.00000000000022,-70.00000000000031,-20.00000000000009
-0.0,-0.0,-0.0,-0.0,-0.0,-0.0,80.00000000000036,160.0000000000007,100.00000000000044,60.00000000000027,-70.00000000000031,-10.000000000000044
-0.0,10.000000000000044,10.000000000000044,-10.000000000000044,-0.0,10.000000000000044,80.00000000000036,170.00000000000077,110.00000000000048,60.00000000000027,-70.00000000000031,-10.000000000000044
-0.0,10.000000000000044,10.000000000000044,-10.000000000000044,-0.0,10.000000000000044,80.00000000000036,180.0000000000008,120.00000000000054,70.00000000000031,-60.00000000000027,-10.000000000000044
-0.0,10.000000000000044,10.000000000000044,-10.000000000000044,-0.0,10.000000000000044,90.0000000000004,190.00000000000085,130.00000000000057,80.00000000000036,-60.00000000000027,-10.000000000000044
-0.0,20.00000000000009,20.00000000000009,-10.000000000000044,-10.000000000000044,20.00000000000009,90.0000000000004,210.00000000000094,140.00000000000063,90.0000000000004,-50.00000000000022,-10.000000000000044
-0.0,20.00000000000009,20.00000000000009,-10.000000000000044,-10.000000000000044,20.00000000000009,100.00000000000044,220.00000000000097,160.0000000000007,100.00000000000044,-50.00000000000022,-0.0
-0.0,20.00000000000009,30.000000000000135,-10.000000000000044,-10.000000000000044,20.00000000000009,100.00000000000044,240.00000000000108,180.0000000000008,110.00000000000048,-40.00000000000018,-0.0
-0.0,20.00000000000009,30.000000000000135,-10.000000000000044,-20.00000000000009,30.000000000000135,110.00000000000048,260.00000000000114,190.00000000000085,120.00000000000054,-40.00000000000018,-0.0
-0.0,30.000000000000135,40.00000000000018,-10.000000000000044,-20.00000000000009,30.000000000000135,120.00000000000054,280.00000000000125,210.00000000000094,140.00000000000063,-30.000000000000135,-0.0
-0.0,30.000000000000135,40.00000000000018,-10.000000000000044,-20.00000000000009,40.00000000000018,130.00000000000057,300.0000000000013,230.00000000000102,150.00000000000065,-20.00000000000009,-0.0
-0.0,30.000000000000135,50.00000000000022,-20.00000000000009,-20.00000000000009,40.00000000000018,140.00000000000063,320.0000000000014,250.0000000000011,160.0000000000007,-20.00000000000009,-0.0
-0.0,40.00000000000018,50.00000000000022,-20.00000000000009,-30.000000000000135,50.00000000000022,150.00000000000065,350.00000000000153,270.0000000000012,170.00000000000077,-10.000000000000044,-0.0
-0.0,50.00000000000022,60.00000000000027,-30.000000000000135,-30.000000000000135,60.00000000000027,160.0000000000007,370.00000000000165,280.00000000000125,180.0000000000008,-0.0,10.000000000000044
-0.0,60.00000000000027,70.00000000000031,-30.000000000000135,-30.000000000000135,70.00000000000031,170.00000000000077,390.0000000000017,300.0000000000013,190.00000000000085,-0.0,10.000000000000044
-0.0,70.00000000000031,80.00000000000036,-40.00000000000018,-40.00000000000018,80.00000000000036,190.00000000000085,410.0000000000018,320.0000000000014,200.00000000000088,-0.0,10.000000000000044
-0.0,80.00000000000036,90.0000000000004,-50.00000000000022,-40.00000000000018,90.0000000000004,210.00000000000094,430.00000000000193,330.0000000000015,210.00000000000094,-0.0,10.000000000000044
-0.0,90.0000000000004,100.00000000000044,-60.00000000000027,-40.00000000000018,100.00000000000044,220.00000000000097,460.00000000000205,360.0000000000016,210.00000000000094,-0.0,20.00000000000009
-0.0,100.00000000000044,110.00000000000048,-60.00000000000027,-50.00000000000022,110.00000000000048,240.00000000000108,480.00000000000216,380.0000000000017,220.00000000000097,-0.0,20.00000000000009
-0.0,110.00000000000048,120.00000000000054,-70.00000000000031,-50.00000000000022,120.00000000000054,250.0000000000011,510.0000000000023,390.0000000000017,230.00000000000102,-0.0,20.00000000000009
-0.0,120.00000000000054,120.00000000000054,-70.00000000000031,-50.00000000000022,120.00000000000054,270.0000000000012,530.0000000000024,400.00000000000176,230.00000000000102,-0.0,20.00000000000009
10.000000000000044,130.00000000000057,120.00000000000054,-80.00000000000036,-50.00000000000022,130.00000000000057,290.0000000000013,540.0000000000024,420.0000000000019,240.00000000000108,10.000000000000044,20.00000000000009
20.00000000000009,140.00000000000063,110.00000000000048,-80.00000000000036,-40.00000000000018,130.00000000000057,300.0000000000013,550.0000000000024,420.0000000000019,240.00000000000108,10.000000000000044,20.00000000000009
30.000000000000135,140.00000000000063,110.00000000000048,-90.0000000000004,-40.00000000000018,130.00000000000057,310.00000000000136,570.0000000000025,430.00000000000193,240.00000000000108,10.000000000000044,30.000000000000135
30.000000000000135,150.00000000000065,110.00000000000048,-90.0000000000004,-30.000000000000135,130.00000000000057,310.00000000000136,570.0000000000025,420.0000000000019,240.00000000000108,10.000000000000044,30.000000000000135
40.00000000000018,150.00000000000065,100.00000000000044,-100.00000000000044,-30.000000000000135,130.00000000000057,300.0000000000013,570.0000000000025,420.0000000000019,230.00000000000102,10.000000000000044,30.000000000000135
40.00000000000018,150.00000000000065,100.00000000000044,-100.00000000000044,-20.00000000000009,130.00000000000057,290.0000000000013,550.0000000000024,400.00000000000176,230.00000000000102,10.000000000000044,30.000000000000135
50.00000000000022,150.00000000000065,100.00000000000044,-100.00000000000044,-20.00000000000009,120.00000000000054,280.00000000000125,530.0000000000024,380.0000000000017,220.00000000000097,10.000000000000044,30.000000000000135
50.00000000000022,150.00000000000065,90.0000000000004,-100.00000000000044,-20.00000000000009,120.00000000000054,260.00000000000114,500.0000000000022,360.0000000000016,210.00000000000094,10.000000000000044,30.000000000000135
50.00000000000022,140.00000000000063,80.00000000000036,-90.0000000000004,-10.000000000000044,110.00000000000048,240.00000000000108,460.00000000000205,330.0000000000015,200.00000000000088,10.000000000000044,30.000000000000135
40.00000000000018,130.00000000000057,70.00000000000031,-90.0000000000004,-10.000000000000044,100.00000000000044,220.00000000000097,420.0000000000019,300.0000000000013,180.0000000000008,10.000000000000044,30.000000000000135
40.00000000000018,120.00000000000054,60.00000000000027,-80.00000000000036,-10.000000000000044,80.00000000000036,190.00000000000085,380.0000000000017,270.0000000000012,170.00000000000077,10.000000000000044,30.000000000000135
30.000000000000135,100.00000000000044,50.00000000000022,-70.00000000000031,-0.0,70.00000000000031,170.00000000000077,340.00000000000153,240.00000000000108,150.00000000000065,-0.0,30.000000000000135
30.000000000000135,90.0000000000004,40.00000000000018,-50.00000000000022,-0.0,50.00000000000022,140.00000000000063,300.0000000000013,210.00000000000094,140.00000000000063,-0.0,30.000000000000135
20.00000000000009,70.00000000000031,30.000000000000135,-40.00000000000018,-0.0,40.00000000000018,120.00000000000054,260.00000000000114,180.0000000000008,120.00000000000054,-0.0,30.000000000000135
20.00000000000009,50.00000000000022,10.000000000000044,-30.000000000000135,-0.0,20.00000000000009,100.00000000000044,210.00000000000094,150.00000000000065,100.00000000000044,-0.0,30.000000000000135
10.000000000000044,30.000000000000135,-0.0,-20.00000000000009,-0.0,10.000000000000044,80.00000000000036,180.0000000000008,120.00000000000054,90.0000000000004,-0.0,30.000000000000135
-0.0,20.00000000000009,-0.0,-10.000000000000044,-0.0,-0.0,60.00000000000027,150.00000000000065,100.00000000000044,80.00000000000036,-0.0,20.00000000000009
-0.0,-0.0,-0.0,-0.0,-0.0,-0.0,40.00000000000018,120.00000000000054,80.00000000000036,60.00000000000027,-10.000000000000044,20.00000000000009
-0.0,-0.0,-0.0,-0.0,-0.0,-0.0,30.000000000000135,90.0000000000004,60.00000000000027,50.00000000000022,-10.000000000000044,10.000000000000044
-0.0,-0.0,-10.000000000000044,-0.0,-0.0,-10.000000000000044,20.00000000000009,70.00000000000031,50.00000000000022,40.00000000000018,-10.000000000000044,10.000000000000044
-0.0,-10.000000000000044,-10.000000000000044,-0.0,-0.0,-10.000000000000044,10.000000000000044,50.00000000000022,40.00000000000018,30.000000000000135,-20.00000000000009,10.000000000000044
-0.0,-10.000000000000044,-10.000000000000044,10.000000000000044,-0.0,-20.00000000000009,10.000000000000044,40.00000000000018,30.000000000000135,30.000000000000135,-20.00000000000009,10.000000000000044
-0.0,-20.00000000000009,-20.00000000000009,10.000000000000044,-0.0,-20.00000000000009,10.000000000000044,30.000000000000135,20.00000000000009,20.00000000000009,-20.00000000000009,-0.0
-0.0,-20.00000000000009,-20.00000000000009,10.000000000000044,-0.0,-20.00000000000009,-0.0,20.00000000000009,20.00000000000009,20.00000000000009,-20.00000000000009,-0.0
-0.0,-30.000000000000135,-20.00000000000009,10.000000000000044,-0.0,-20.00000000000009,-0.0,20.00000000000009,10.000000000000044,10.000000000000044,-20.00000000000009,-0.0
-0.0,-30.000000000000135,-30.000000000000135,20.00000000000009,-0.0,-30.000000000000135,-0.0,10.000000000000044,10.000000000000044,10.000000000000044,-20.00000000000009,-0.0
-0.0,-30.000000000000135,-30.000000000000135,20.00000000000009,10.000000000000044,-30.000000000000135,-0.0,10.000000000000044,10.000000000000044,10.000000000000044,-20.00000000000009,-0.0
-0.0,-30.000000000000135,-40.00000000000018,20.00000000000009,10.000000000000044,-40.00000000000018,-0.0,10.000000000000044,10.000000000000044,10.000000000000044,-20.00000000000009,-0.0
-0.0,-40.00000000000018,-40.00000000000018,20.00000000000009,10.000000000000044,-40.00000000000018,-0.0,10.000000000000044,10.000000000000044,10.000000000000044,-20.00000000000009,-0.0
-0.0,-40.00000000000018,-30.000000000000135,20.00000000000009,10.000000000000044,-40.00000000000018,-0.0,10.000000000000044,-0.0,-0.0,-20.00000000000009,-0.0
-10.000000000000044,-40.00000000000018,-20.00000000000009,20.00000000000009,-0.0,-30.000000000000135,-0.0,-0.0,-0.0,-0.0,-20.00000000000009,-0.0
-20.00000000000009,-40.00000000000018,-10.000000000000044,30.000000000000135,-0.0,-20.00000000000009,-0.0,-0.0,-0.0,-0.0,-30.000000000000135,-0.0
-30.000000000000135,-40.00000000000018,-0.0,20.00000000000009,-10.000000000000044,-10.000000000000044,-0.0,-0.0,-0.0,-0.0,-30.000000000000135,-0.0
-20.00000000000009,-30.000000000000135,-0.0,-0.0,-10.000000000000044,-0.0,-0.0,-0.0,-0.0,-0.0,-30.000000000000135,-0.0
10.000000000000044,-10.000000000000044,-0.0,-20.00000000000009,10.000000000000044,-0.0,-0.0,-0.0,-0.0,-0.0,-30.000000000000135,-0.0
70.00000000000031,10.000000000000044,-20.00000000000009,-70.00000000000031,50.00000000000022,10.000000000000044,-0.0,-0.0,-0.0,-0.0,-30.000000000000135,-0.0
160.0000000000007,50.00000000000022,-60.00000000000027,-140.00000000000063,110.00000000000048,20.00000000000009,-0.0,-0.0,-0.0,-0.0,-30.000000000000135,-0.0
270.0000000000012,100.00000000000044,-100.00000000000044,-220.00000000000097,180.0000000000008,30.000000000000135,-0.0,-0.0,-0.0,-0.0,-20.00000000000009,-10.000000000000044
370.00000000000165,160.0000000000007,-150.00000000000065,-300.0000000000013,260.00000000000114,30.000000000000135,-0.0,-0.0,-0.0,-0.0,-20.00000000000009,-10.000000000000044
460.00000000000205,220.00000000000097,-210.00000000000094,-360.0000000000016,330.0000000000015,10.000000000000044,-0.0,-0.0,-0.0,-0.0,-20.00000000000009,-0.0
520.0000000000023,250.0000000000011,-270.0000000000012,-400.00000000000176,390.0000000000017,-10.000000000000044,-0.0,-0.0,-0.0,-0.0,-20.00000000000009,-0.0
540.0000000000024,250.0000000000011,-320.0000000000014,-380.0000000000017,430.00000000000193,-50.00000000000022,10.000000000000044,-0.0,-0.0,-0.0,-20.00000000000009,-0.0
510.0000000000023,220.00000000000097,-360.0000000000016,-330.0000000000015,430.00000000000193,-100.00000000000044,10.000000000000044,-0.0,-0.0,-0.0,-10.000000000000044,-0.0
440.00000000000193,150.00000000000065,-370.00000000000165,-260.00000000000114,400.00000000000176,-140.00000000000063,10.000000000000044,-0.0,-0.0,-0.0,-10.000000000000044,-0.0
350.00000000000153,70.00000000000031,-350.00000000000153,-170.00000000000077,350.00000000000153,-180.0000000000008,10.000000000000044,-0.0,-0.0,-0.0,-10.000000000000044,-0.0
250.0000000000011,-0.0,-320.0000000000014,-80.00000000000036,280.00000000000125,-200.00000000000088,10.000000000000044,-0.0,-0.0,-0.0,-10.000000000000044,-0.0
140.00000000000063,-70.00000000000031,-270.0000000000012,-10.000000000000044,210.00000000000094,-200.00000000000088,10.000000000000044,-0.0,-0.0,-0.0,-10.000000000000044,-10.000000000000044
50.00000000000022,-130.00000000000057,-220.00000000000097,40.00000000000018,140.00000000000063,-190.00000000000085,10.000000000000044,-0.0,-0.0,-0.0,-10.000000000000044,-10.000000000000044
-10.000000000000044,-160.0000000000007,-170.00000000000077,80.00000000000036,70.00000000000031,-170.00000000000077,10.000000000000044,-0.0,-0.0,-0.0,-10.000000000000044,-10.000000000000044
-50.00000000000022,-170.00000000000077,-120.00000000000054,100.00000000000044,20.00000000000009,-140.00000000000063,-0.0,-0.0,-0.0,-0.0,-10.000000000000044,-10.000000000000044
-80.00000000000036,-170.00000000000077,-80.00000000000036,120.00000000000054,-0.0,-120.00000000000054,-0.0,-0.0,-0.0,-0.0,-10.000000000000044,-10.000000000000044
-90.0000000000004,-160.0000000000007,-50.00000000000022,110.00000000000048,-20.00000000000009,-100.00000000000044,-0.0,-0.0,-0.0,-0.0,-10.000000000000044,-20.00000000000009
-80.00000000000036,-140.00000000000063,-30.000000000000135,90.0000000000004,-20.00000000000009,-80.00000000000036,-0.0,-0.0,-10.000000000000044,-10.000000000000044,-10.000000000000044,-20.00000000000009
-70.00000000000031,-120.00000000000054,-20.00000000000009,80.00000000000036,-20.00000000000009,-60.00000000000027,-0.0,-0.0,-10.000000000000044,-10.000000000000044,-10.000000000000044,-20.00000000000009
-60.00000000000027,-100.00000000000044,-20.00000000000009,70.00000000000031,-20.00000000000009,-50.00000000000022,-0.0,-0.0,-10.000000000000044,-10.000000000000044,-10.000000000000044,-20.00000000000009
-50.00000000000022,-90.0000000000004,-20.00000000000009,60.00000000000027,-10.000000000000044,-50.00000000000022,-10.000000000000044,-10.000000000000044,-10.000000000000044,-10.000000000000044,-10.000000000000044,-20.00000000000009
-50.00000000000022,-80.00000000000036,-30.000000000000135,60.00000000000027,-0.0,-50.00000000000022,-10.000000000000044,-10.000000000000044,-10.000000000000044,-10.000000000000044,-10.000000000000044,-20.00000000000009
-40.00000000000018,-80.00000000000036,-30.000000000000135,60.00000000000027,-0.0,-60.00000000000027,-10.000000000000044,-10.000000000000044,-10.000000000000044,-10.000000000000044,-10.000000000000044,-20.00000000000009
-40.00000000000018,-80.00000000000036,-30.000000000000135,60.00000000000027,-0.0,-60.00000000000027,-10.000000000000044,-10.000000000000044,-20.00000000000009,-10.000000000000044,-10.000000000000044,-20.00000000000009
-40.00000000000018,-80.00000000000036,-40.00000000000018,60.00000000000027,-0.0,-60.00000000000027,-20.00000000000009,-10.000000000000044,-20.00000000000009,-10.000000000000044,-10.000000000000044,-20.00000000000009
-40.00000000000018,-80.00000000000036,-40.00000000000018,60.00000000000027,-0.0,-60.00000000000027,-20.00000000000009,-20.00000000000009,-20.00000000000009,-10.000000000000044,-10.000000000000044,-20.00000000000009
