I,II,III,aVR,aVL,aVF,V1,V2,V3,V4,V5,V6
-0.0,-10.000000000000044,-10.000000000000044,-0.0,-0.0,-10.000000000000044,-0.0,-0.0,-0.0,-0.0,-0.0,-0.0
-0.0,-10.000000000000044,-10.000000000000044,-0.0,-0.0,-10.000000000000044,10.000000000000044,-0.0,-0.0,-0.0,-0.0,-0.0
-0.0,-10.000000000000044,-10.000000000000044,-0.0,-0.0,-10.000000000000044,10.000000000000044,-0.0,-0.0,-0.0,-0.0,-0.0
-0.0,-10.000000000000044,-10.000000000000044,-0.0,-0.0,-10.000000000000044,-0.0,-0.0,-0.0,-0.0,-0.0,-0.0
-0.0,-10.000000000000044,-10.000000000000044,-0.0,-0.0,-10.000000000000044,-0.0,-0.0,-0.0,-0.0,-0.0,-0.0
-0.0,-10.000000000000044,-10.000000000000044,10.000000000000044,-0.0,-10.000000000000044,-0.0,-0.0,-0.0,-0.0,-0.0,-0.0
-0.0,-10.000000000000044,-10.000000000000044,10.000000000000044,-0.0,-10.000000000000044,-0.0,-0.0,-0.0,-0.0,-0.0,-0.0
-0.0,-10.000000000000044,-0.0,10.000000000000044,-0.0,-10.000000000000044,-0.0,-0.0,-0.0,-0.0,-0.0,-0.0
-0.0,-10.000000000000044,-0.0,-0.0,-0.0,-10.000000000000044,10.000000000000044,-0.0,-0.0,-0.0,-0.0,-0.0
-0.0,-10.000000000000044,-0.0,-0.0,-0.0,-0.0,10.000000000000044,-0.0,-0.0,-0.0,-0.0,-0.0
-0.0,-0.0,-0.0,-0.0,-0.0,-0.0,-0.0,-0.0,-0.0,-0.0,-10.000000000000044,-0.0
-0.0,-0.0,-0.0,-0.0,-0.0,-0.0,-0.0,-0.0,-0.0,-0.0,-10.000000000000044,-0.0
-0.0,-0.0,-0.0,-0.0,-0.0,-0.0,-0.0,-0.0,-0.0,-0.0,-10.000000000000044,-0.0
-0.0,-0.0,-0.0,-0.0,-0.0,-0.0,-0.0,-0.0,-0.0,-0.0,-10.000000000000044,-0.0
-0.0,-10.000000000000044,-0.0,10.000000000000044,-0.0,-10.000000000000044,-0.0,-0.0,-0.0,-0.0,-10.000000000000044,-0.0
-0.0,-10.000000000000044,-0.0,10.000000000000044,-0.0,-10.000000000000044,-0.0,-0.0,-0.0,-0.0,-0.0,-0.0
-0.0,-10.000000000000044,-0.0,-0.0,-0.0,-0.0,-0.0,-0.0,-0.0,-0.0,-0.0,-0.0
-0.0,-10.000000000000044,-0.0,-0.0,-0.0,-0.0,-0.0,-0.0,-0.0,-0.0,-0.0,-0.0
-0.0,-0.0,-0.0,-0.0,-0.0,-0.0,-0.0,-0.0,-0.0,-0.0,-0.0,-0.0
-0.0,-0.0,-0.0,-0.0,-0.0,-0.0,-0.0,-0.0,-0.0,-0.0,-0.0,-0.0
-0.0,-0.0,-0.0,-0.0,-0.0,-0.0,-0.0,-0.0,-0.0,-0.0,-0.0,-0.0
-0.0,-0.0,-0.0,-0.0,-0.0,-0.0,-0.0,-0.0,-0.0,-0.0,-0.0,-0.0
-0.0,-0.0,-0.0,-0.0,-0.0,-0.0,-0.0,-0.0,-0.0,-0.0,-0.0,-0.0
-0.0,-0.0,-0.0,-0.0,-0.0,-0.0,-0.0,-0.0,-0.0,-0.0,-0.0,-0.0
-0.0,-0.0,-0.0,-0.0,-0.0,-0.0,-0.0,-0.0,-0.0,-0.0,-10.000000000000044,-0.0
-0.0,-0.0,10.000000000000044,-0.0,-0.0,-0.0,-0.0,-0.0,-0.0,-0.0,-10.000000000000044,-0.0
-0.0,-0.0,-0.0,-0.0,-0.0,-0.0,-0.0,-0.0,-0.0,-0.0,-10.000000000000044,-0.0
-0.0,-0.0,-0.0,-0.0,-0.0,-0.0,-0.0,-0.0,-0.0,-0.0,-0.0,-0.0
-0.0,-0.0,-0.0,-0.0,-0.0,-0.0,-0.0,-0.0,-0.0,-0.0,-0.0,-0.0
-0.0,-0.0,-0.0,-0.0,-0.0,-0.0,-0.0,-0.0,-0.0,-0.0,-0.0,-0.0
-0.0,-0.0,-0.0,-0.0,-0.0,-0.0,-0.0,-0.0,-0.0,-0.0,-0.0,-0.0
-0.0,-0.0,-0.0,-0.0,-0.0,-0.0,-0.0,-0.0,-0.0,-0.0,-0.0,-0.0
-0.0,-0.0,-0.0,-0.0,-0.0,-0.0,-0.0,-0.0,-0.0,-0.0,-0.0,-0.0
-0.0,-0.0,-0.0,-0.0,-0.0,-0.0,-0.0,-0.0,-0.0,-0.0,-0.0,-0.0
-0.0,-0.0,10.000000000000044,-0.0,-0.0,-0.0,-0.0,-0.0,-0.0,-0.0,-0.0,-0.0
-0.0,-0.0,10.000000000000044,-0.0,-0.0,-0.0,-0.0,-0.0,-0.0,-0.0,-0.0,-0.0
-0.0,-0.0,10.000000000000044,-0.0,-0.0,-0.0,-0.0,-0.0,-0.0,-0.0,-0.0,-0.0
-0.0,-0.0,10.000000000000044,-0.0,-10.000000000000044,-0.0,-0.0,-0.0,-0.0,-0.0,-0.0,-0.0
-10.000000000000044,-0.0,10.000000000000044,-0.0,-10.000000000000044,-0.0,-0.0,-0.0,-0.0,-0.0,-0.0,-0.0
-10.000000000000044,-0.0,10.000000000000044,-0.0,-10.000000000000044,-0.0,-0.0,-0.0,-0.0,-0.0,-0.0,-0.0
-10.000000000000044,-0.0,10.000000000000044,-0.0,-10.000000000000044,10.000000000000044,-0.0,-0.0,-0.0,-0.0,-0.0,-0.0
-10.000000000000044,-0.0,20.00000000000009,-0.0,-10.000000000000044,10.000000000000044,-0.0,-0.0,-0.0,-0.0,-0.0,-0.0
-10.000000000000044,-0.0,20.00000000000009,-0.0,-10.000000000000044,10.000000000000044,-0.0,-0.0,-0.0,-0.0,-0.0,-0.0
-0.0,-0.0,10.000000000000044,-0.0,-10.000000000000044,10.000000000000044,-0.0,-0.0,-0.0,-0.0,-0.0,-0.0
-0.0,-0.0,10.000000000000044,-0.0,-10.000000000000044,10.000000000000044,-0.0,-0.0,-0.0,-0.0,-0.0,-0.0
-10.000000000000044,-0.0,10.000000000000044,-0.0,-10.000000000000044,10.000000000000044,-0.0,-0.0,-0.0,-0.0,-0.0,-0.0
-10.000000000000044,-0.0,20.00000000000009,-0.0,-10.000000000000044,10.000000000000044,-0.0,-0.0,-0.0,-0.0,-0.0,-0.0
-10.000000000000044,-0.0,20.00000000000009,-0.0,-10.000000000000044,10.000000000000044,-0.0,-0.0,-0.0,-0.0,-0.0,-0.0
-10.000000000000044,-0.0,20.00000000000009,-0.0,-10.000000000000044,10.000000000000044,-0.0,-0.0,-0.0,-0.0,-0.0,-0.0
-10.000000000000044,-0.0,20.00000000000009,-0.0,-10.000000000000044,10.000000000000044,-0.0,-0.0,-0.0,-0.0,-0.0,-0.0
-10.000000000000044,-0.0,10.000000000000044,-0.0,-10.000000000000044,10.000000000000044,-0.0,-0.0,-0.0,-0.0,-0.0,-0.0
-10.000000000000044,-0.0,20.00000000000009,-0.0,-10.000000000000044,10.000000000000044,-0.0,-0.0,-0.0,-0.0,-0.0,-0.0
-10.000000000000044,-0.0,20.00000000000009,-0.0,-10.000000000000044,10.000000000000044,-0.0,-0.0,-0.0,-0.0,-0.0,-0.0
-10.000000000000044,-0.0,20.00000000000009,-0.0,-10.000000000000044,10.000000000000044,-0.0,-0.0,-0.0,-0.0,-0.0,-0.0
-10.000000000000044,10.000000000000044,20.00000000000009,-0.0,-20.00000000000009,10.000000000000044,-0.0,-0.0,-0.0,-0.0,-0.0,-0.0
-10.000000000000044,10.000000000000044,20.00000000000009,-0.0,-20.00000000000009,10.000000000000044,-0.0,-0.0,-0.0,-0.0,-0.0,-0.0
-10.000000000000044,-0.0,20.00000000000009,-0.0,-20.00000000000009,10.000000000000044,-0.0,-0.0,-0.0,-0.0,-0.0,-0.0
-10.000000000000044,-0.0,10.000000000000044,-0.0,-10.000000000000044,10.000000000000044,-0.0,-0.0,-0.0,-0.0,-0.0,-0.0
-0.0,-0.0,10.000000000000044,-0.0,-10.000000000000044,10.000000000000044,-0.0,-0.0,-0.0,-0.0,-0.0,-0.0
-0.0,10.000000000000044,10.000000000000044,-0.0,-10.000000000000044,10.000000000000044,-0.0,-0.0,-0.0,-0.0,-0.0,-0.0
-0.0,10.000000000000044,10.000000000000044,-0.0,-0.0,10.000000000000044,-0.0,-0.0,-0.0,-0.0,-0.0,-0.0
-0.0,10.000000000000044,20.00000000000009,-10.000000000000044,-10.000000000000044,20.00000000000009,-0.0,-0.0,-0.0,-0.0,-0.0,-0.0
-0.0,20.00000000000009,30.000000000000135,-20.00000000000009,-10.000000000000044,30.000000000000135,-0.0,-0.0,-0.0,-0.0,-0.0,-0.0
-0.0,30.000000000000135,40.00000000000018,-30.000000000000135,-20.00000000000009,40.00000000000018,-0.0,-0.0,-0.0,-0.0,-0.0,-0.0
-0.0,50.00000000000022,50.00000000000022,-40.00000000000018,-20.00000000000009,60.00000000000027,-0.0,-0.0,-0.0,-0.0,-0.0,-0.0
10.000000000000044,60.00000000000027,60.00000000000027,-40.00000000000018,-20.00000000000009,70.00000000000031,-0.0,-0.0,-0.0,-0.0,-0.0,-0.0
10.000000000000044,70.00000000000031,60.00000000000027,-50.00000000000022,-20.00000000000009,70.00000000000031,-0.0,-0.0,-0.0,-0.0,-0.0,-0.0
20.00000000000009,80.00000000000036,60.00000000000027,-50.00000000000022,-20.00000000000009,70.00000000000031,-0.0,-0.0,-10.000000000000044,-0.0,-0.0,-0.0
20.00000000000009,90.0000000000004,60.00000000000027,-60.00000000000027,-10.000000000000044,70.00000000000031,-0.0,-0.0,-10.000000000000044,-0.0,-0.0,-0.0
30.000000000000135,90.0000000000004,50.00000000000022,-60.00000000000027,-0.0,70.00000000000031,-0.0,-0.0,-10.000000000000044,-0.0,-0.0,-0.0
30.000000000000135,90.0000000000004,40.00000000000018,-60.00000000000027,-0.0,60.00000000000027,-0.0,-10.000000000000044,-10.000000000000044,-0.0,-0.0,-10.000000000000044
40.00000000000018,90.0000000000004,40.00000000000018,-60.00000000000027,-0.0,60.00000000000027,-0.0,-10.000000000000044,-10.000000000000044,-0.0,-0.0,-10.000000000000044
40.00000000000018,80.00000000000036,30.000000000000135,-60.00000000000027,-0.0,60.00000000000027,-0.0,-10.000000000000044,-10.000000000000044,-0.0,-0.0,-10.000000000000044
50.00000000000022,80.00000000000036,20.00000000000009,-60.00000000000027,-0.0,50.00000000000022,-0.0,-10.000000000000044,-10.000000000000044,-0.0,-0.0,-10.000000000000044
50.00000000000022,80.00000000000036,20.00000000000009,-60.00000000000027,10.000000000000044,40.00000000000018,-0.0,-10.000000000000044,-10.000000000000044,-0.0,-0.0,-10.000000000000044
50.00000000000022,70.00000000000031,10.000000000000044,-60.00000000000027,20.00000000000009,40.00000000000018,-10.000000000000044,-10.000000000000044,-10.000000000000044,-0.0,-0.0,-10.000000000000044
60.00000000000027,70.00000000000031,-0.0,-60.00000000000027,20.00000000000009,20.00000000000009,-10.000000000000044,-10.000000000000044,-10.000000000000044,-0.0,-0.0,-10.000000000000044
60.00000000000027,60.00000000000027,-10.000000000000044,-50.00000000000022,30.000000000000135,10.000000000000044,-10.000000000000044,-10.000000000000044,-10.000000000000044,-0.0,-0.0,-10.000000000000044
50.00000000000022,40.00000000000018,-10.000000000000044,-50.00000000000022,30.000000000000135,-0.0,-20.00000000000009,-10.000000000000044,-10.000000000000044,-0.0,-0.0,-10.000000000000044
50.00000000000022,30.000000000000135,-20.00000000000009,-40.00000000000018,30.000000000000135,-0.0,-20.00000000000009,-10.000000000000044,-10.000000000000044,-0.0,-0.0,-10.000000000000044
40.00000000000018,20.00000000000009,-20.00000000000009,-30.000000000000135,30.000000000000135,-0.0,-20.00000000000009,-10.000000000000044,-0.0,-0.0,-0.0,-10.000000000000044
30.000000000000135,10.000000000000044,-20.00000000000009,-20.00000000000009,30.000000000000135,-0.0,-20.00000000000009,-0.0,-0.0,-0.0,-0.0,-10.000000000000044
20.00000000000009,-0.0,-20.00000000000009,-10.000000000000044,20.00000000000009,-10.000000000000044,-10.000000000000044,-0.0,-0.0,10.000000000000044,-0.0,-0.0
-0.0,-0.0,-20.00000000000009,-0.0,10.000000000000044,-10.000000000000044,-0.0,-0.0,10.000000000000044,20.00000000000009,10.000000000000044,-0.0
-0.0,-0.0,-10.000000000000044,-0.0,-0.0,-10.000000000000044,-0.0,10.000000000000044,20.00000000000009,30.000000000000135,10.000000000000044,-0.0
-0.0,-10.000000000000044,-10.000000000000044,10.000000000000044,-0.0,-10.000000000000044,-0.0,10.000000000000044,30.000000000000135,40.00000000000018,20.00000000000009,10.000000000000044
-10.000000000000044,-20.00000000000009,-0.0,10.000000000000044,-0.0,-10.000000000000044,10.000000000000044,20.00000000000009,40.00000000000018,50.00000000000022,30.000000000000135,20.00000000000009
-10.000000000000044,-20.00000000000009,-10.000000000000044,20.00000000000009,-0.0,-20.00000000000009,20.00000000000009,30.000000000000135,40.00000000000018,50.00000000000022,40.00000000000018,20.00000000000009
-10.000000000000044,-30.000000000000135,-10.000000000000044,20.00000000000009,-0.0,-20.00000000000009,20.00000000000009,40.00000000000018,40.00000000000018,60.00000000000027,50.00000000000022,30.000000000000135
-10.000000000000044,-30.000000000000135,-20.00000000000009,20.00000000000009,-0.0,-20.00000000000009,20.00000000000009,40.00000000000018,40.00000000000018,60.00000000000027,50.00000000000022,30.000000000000135
-10.000000000000044,-30.000000000000135,-20.00000000000009,20.00000000000009,-0.0,-20.00000000000009,10.000000000000044,40.00000000000018,30.000000000000135,50.00000000000022,50.00000000000022,30.000000000000135
-10.000000000000044,-30.000000000000135,-20.00000000000009,20.00000000000009,-0.0,-20.00000000000009,-0.0,30.000000000000135,20.00000000000009,40.00000000000018,50.00000000000022,30.000000000000135
-10.000000000000044,-30.000000000000135,-10.000000000000044,20.00000000000009,-0.0,-20.00000000000009,-10.000000000000044,10.000000000000044,10.000000000000044,30.000000000000135,40.00000000000018,30.000000000000135
-10.000000000000044,-30.000000000000135,-10.000000000000044,10.000000000000044,-0.0,-10.000000000000044,-30.000000000000135,-0.0,10.000000000000044,30.000000000000135,40.00000000000018,30.000000000000135
-20.00000000000009,-20.00000000000009,-0.0,20.00000000000009,-10.000000000000044,-10.000000000000044,-40.00000000000018,-0.0,-0.0,20.00000000000009,30.000000000000135,30.000000000000135
-30.000000000000135,-20.00000000000009,-0.0,20.00000000000009,-20.00000000000009,-0.0,-50.00000000000022,-0.0,-0.0,20.00000000000009,30.000000000000135,20.00000000000009
-40.00000000000018,-20.00000000000009,10.000000000000044,20.00000000000009,-30.000000000000135,-0.0,-60.00000000000027,-10.000000000000044,-0.0,10.000000000000044,30.000000000000135,20.00000000000009
-40.00000000000018,-10.000000000000044,20.00000000000009,20.00000000000009,-30.000000000000135,-0.0,-60.00000000000027,-10.000000000000044,-10.000000000000044,-0.0,30.000000000000135,20.00000000000009
-40.00000000000018,-10.000000000000044,40.00000000000018,-0.0,-40.00000000000018,20.00000000000009,-50.00000000000022,-20.00000000000009,-20.00000000000009,-0.0,20.00000000000009,10.000000000000044
-10.000000000000044,10.000000000000044,50.00000000000022,-20.00000000000009,-30.000000000000135,50.00000000000022,-50.00000000000022,-20.00000000000009,-30.000000000000135,-0.0,10.000000000000044,-0.0
40.00000000000018,40.00000000000018,60.00000000000027,-70.00000000000031,-10.000000000000044,80.00000000000036,-40.00000000000018,-30.000000000000135,-40.00000000000018,-10.000000000000044,-0.0,-0.0
120.00000000000054,100.00000000000044,60.00000000000027,-150.00000000000065,20.00000000000009,120.00000000000054,-40.00000000000018,-30.000000000000135,-40.00000000000018,-10.000000000000044,-0.0,-10.000000000000044
210.00000000000094,180.0000000000008,40.00000000000018,-240.00000000000108,70.00000000000031,150.00000000000065,-30.000000000000135,-40.00000000000018,-40.00000000000018,-20.00000000000009,-10.000000000000044,-10.000000000000044
300.0000000000013,260.00000000000114,-0.0,-310.00000000000136,140.00000000000063,160.0000000000007,-30.000000000000135,-40.00000000000018,-50.00000000000022,-20.00000000000009,-20.00000000000009,-20.00000000000009
370.00000000000165,310.00000000000136,-50.00000000000022,-350.00000000000153,200.00000000000088,130.00000000000057,-30.000000000000135,-40.00000000000018,-50.00000000000022,-20.00000000000009,-20.00000000000009,-10.000000000000044
400.00000000000176,310.00000000000136,-130.00000000000057,-330.0000000000015,260.00000000000114,60.00000000000027,-30.000000000000135,-50.00000000000022,-50.00000000000022,-30.000000000000135,-20.00000000000009,-10.000000000000044
380.0000000000017,250.0000000000011,-220.00000000000097,-270.0000000000012,300.0000000000013,-40.00000000000018,-40.00000000000018,-50.00000000000022,-50.00000000000022,-30.000000000000135,-20.00000000000009,-10.000000000000044
330.0000000000015,150.00000000000065,-310.00000000000136,-180.0000000000008,320.0000000000014,-140.00000000000063,-40.00000000000018,-50.00000000000022,-50.00000000000022,-20.00000000000009,-20.00000000000009,-10.000000000000044
260.00000000000114,30.000000000000135,-370.00000000000165,-80.00000000000036,310.00000000000136,-230.00000000000102,-40.00000000000018,-50.00000000000022,-50.00000000000022,-20.00000000000009,-20.00000000000009,-10.000000000000044
190.00000000000085,-100.00000000000044,-390.0000000000017,-10.000000000000044,290.0000000000013,-290.0000000000013,-40.00000000000018,-60.00000000000027,-50.00000000000022,-20.00000000000009,-20.00000000000009,-10.000000000000044
130.00000000000057,-190.00000000000085,-370.00000000000165,40.00000000000018,250.0000000000011,-310.00000000000136,-40.00000000000018,-50.00000000000022,-40.00000000000018,-20.00000000000009,-20.00000000000009,-20.00000000000009
80.00000000000036,-240.00000000000108,-310.00000000000136,70.00000000000031,200.00000000000088,-270.0000000000012,-40.00000000000018,-30.000000000000135,-10.000000000000044,-20.00000000000009,-20.00000000000009,-30.000000000000135
40.00000000000018,-230.00000000000102,-240.00000000000108,70.00000000000031,140.00000000000063,-210.00000000000094,-20.00000000000009,-10.000000000000044,10.000000000000044,-0.0,-30.000000000000135,-40.00000000000018
10.000000000000044,-190.00000000000085,-160.0000000000007,50.00000000000022,80.00000000000036,-150.00000000000065,10.000000000000044,30.000000000000135,70.00000000000031,40.00000000000018,-40.00000000000018,-60.00000000000027
-0.0,-140.00000000000063,-80.00000000000036,30.000000000000135,30.000000000000135,-90.0000000000004,40.00000000000018,90.0000000000004,160.0000000000007,120.00000000000054,-30.000000000000135,-70.00000000000031
-10.000000000000044,-80.00000000000036,-30.000000000000135,20.00000000000009,-0.0,-30.000000000000135,80.00000000000036,160.0000000000007,280.00000000000125,260.00000000000114,-0.0,-50.00000000000022
-10.000000000000044,-40.00000000000018,-0.0,10.000000000000044,-10.000000000000044,-0.0,110.00000000000048,250.0000000000011,430.00000000000193,450.000000000002,80.00000000000036,-10.000000000000044
-10.000000000000044,-10.000000000000044,10.000000000000044,-0.0,-10.000000000000044,-0.0,130.00000000000057,340.00000000000153,590.0000000000026,670.000000000003,220.00000000000097,70.00000000000031
-10.000000000000044,-0.0,-0.0,10.000000000000044,-10.000000000000044,-0.0,120.00000000000054,420.0000000000019,710.0000000000032,870.0000000000039,420.0000000000019,190.00000000000085
-10.000000000000044,-0.0,-0.0,10.000000000000044,-10.000000000000044,-0.0,100.00000000000044,470.0000000000021,740.0000000000033,980.0000000000043,630.0000000000028,330.0000000000015
-20.00000000000009,-10.000000000000044,-10.000000000000044,20.00000000000009,-0.0,-20.00000000000009,60.00000000000027,440.00000000000193,630.0000000000028,930.0000000000041,800.0000000000035,460.00000000000205
-20.00000000000009,-30.000000000000135,-10.000000000000044,20.00000000000009,-0.0,-20.00000000000009,-0.0,320.0000000000014,380.0000000000017,710.0000000000032,900.000000000004,560.0000000000025
-20.00000000000009,-30.000000000000135,-10.000000000000044,30.000000000000135,-0.0,-20.00000000000009,-80.00000000000036,100.00000000000044,-0.0,340.00000000000153,850.0000000000038,590.0000000000026
-20.00000000000009,-40.00000000000018,-10.000000000000044,20.00000000000009,-0.0,-20.00000000000009,-170.00000000000077,-200.00000000000088,-430.00000000000193,-90.0000000000004,700.0000000000031,540.0000000000024
-20.00000000000009,-30.000000000000135,-10.000000000000044,20.00000000000009,-0.0,-20.00000000000009,-270.0000000000012,-540.0000000000024,-820.0000000000036,-510.0000000000023,460.00000000000205,440.00000000000193
-20.00000000000009,-30.000000000000135,-0.0,20.00000000000009,-0.0,-10.000000000000044,-370.00000000000165,-860.0000000000039,-1100.0000000000048,-820.0000000000036,190.00000000000085,290.0000000000013
-20.00000000000009,-30.000000000000135,-0.0,20.00000000000009,-0.0,-10.000000000000044,-460.00000000000205,-1100.0000000000048,-1240.0000000000055,-990.0000000000044,-60.00000000000027,150.00000000000065
-30.000000000000135,-30.000000000000135,-0.0,30.000000000000135,-10.000000000000044,-10.000000000000044,-540.0000000000024,-1230.0000000000055,-1250.0000000000055,-1020.0000000000045,-230.00000000000102,30.000000000000135
-30.000000000000135,-30.000000000000135,-0.0,30.000000000000135,-10.000000000000044,-10.000000000000044,-580.0000000000026,-1260.0000000000057,-1140.000000000005,-940.0000000000042,-330.0000000000015,-50.00000000000022
-30.000000000000135,-30.000000000000135,-0.0,30.000000000000135,-10.000000000000044,-10.000000000000044,-560.0000000000025,-1180.0000000000052,-980.0000000000043,-810.0000000000036,-350.00000000000153,-90.0000000000004
-30.000000000000135,-30.000000000000135,-0.0,30.000000000000135,-10.000000000000044,-10.000000000000044,-520.0000000000023,-1050.0000000000048,-810.0000000000036,-660.000000000003,-330.0000000000015,-110.00000000000048
-30.000000000000135,-30.000000000000135,-0.0,30.000000000000135,-10.000000000000044,-10.000000000000044,-450.000000000002,-880.0000000000039,-640.0000000000028,-520.0000000000023,-280.00000000000125,-110.00000000000048
-30.000000000000135,-30.000000000000135,-0.0,30.000000000000135,-10.000000000000044,-10.000000000000044,-360.0000000000016,-700.0000000000031,-490.00000000000216,-410.0000000000018,-230.00000000000102,-100.00000000000044
-30.000000000000135,-30.000000000000135,-0.0,30.000000000000135,-10.000000000000044,-10.000000000000044,-270.0000000000012,-530.0000000000024,-360.0000000000016,-310.00000000000136,-180.0000000000008,-90.0000000000004
-30.000000000000135,-20.00000000000009,-0.0,20.00000000000009,-10.000000000000044,-10.000000000000044,-200.00000000000088,-400.00000000000176,-270.0000000000012,-230.00000000000102,-140.00000000000063,-80.00000000000036
-30.000000000000135,-20.00000000000009,-0.0,20.00000000000009,-20.00000000000009,-0.0,-140.00000000000063,-290.0000000000013,-210.00000000000094,-170.00000000000077,-110.00000000000048,-70.00000000000031
-30.000000000000135,-20.00000000000009,-0.0,20.00000000000009,-20.00000000000009,-0.0,-100.00000000000044,-220.00000000000097,-170.00000000000077,-140.00000000000063,-90.0000000000004,-60.00000000000027
-30.000000000000135,-20.00000000000009,10.000000000000044,20.00000000000009,-20.00000000000009,-0.0,-80.00000000000036,-180.0000000000008,-150.00000000000065,-120.00000000000054,-70.00000000000031,-50.00000000000022
-30.000000000000135,-20.00000000000009,10.000000000000044,20.00000000000009,-20.00000000000009,-0.0,-70.00000000000031,-160.0000000000007,-130.00000000000057,-110.00000000000048,-60.00000000000027,-60.00000000000027
-20.00000000000009,-10.000000000000044,10.000000000000044,10.000000000000044,-20.00000000000009,-0.0,-60.00000000000027,-140.00000000000063,-120.00000000000054,-100.00000000000044,-60.00000000000027,-60.00000000000027
-20.00000000000009,-10.000000000000044,10.000000000000044,10.000000000000044,-20.00000000000009,-0.0,-50.00000000000022,-120.00000000000054,-100.00000000000044,-100.00000000000044,-60.00000000000027,-60.00000000000027
-20.00000000000009,-0.0,10.000000000000044,10.000000000000044,-10.000000000000044,-0.0,-40.00000000000018,-100.00000000000044,-80.00000000000036,-90.0000000000004,-60.00000000000027,-60.00000000000027
-10.000000000000044,-0.0,10.000000000000044,-0.0,-10.000000000000044,-0.0,-40.00000000000018,-80.00000000000036,-60.00000000000027,-70.00000000000031,-60.00000000000027,-70.00000000000031
-10.000000000000044,-0.0,-0.0,-0.0,-10.000000000000044,-0.0,-30.000000000000135,-60.00000000000027,-50.00000000000022,-60.00000000000027,-50.00000000000022,-70.00000000000031
-10.000000000000044,-0.0,10.000000000000044,-0.0,-10.000000000000044,-0.0,-20.00000000000009,-50.00000000000022,-40.00000000000018,-50.00000000000022,-50.00000000000022,-60.00000000000027
-10.000000000000044,-0.0,10.000000000000044,-0.0,-10.000000000000044,-0.0,-20.00000000000009,-40.00000000000018,-30.000000000000135,-30.000000000000135,-40.00000000000018,-60.00000000000027
-10.000000000000044,-0.0,10.000000000000044,-0.0,-10.000000000000044,-0.0,-20.00000000000009,-30.000000000000135,-20.00000000000009,-20.00000000000009,-40.00000000000018,-60.00000000000027
-10.000000000000044,-0.0,10.000000000000044,-0.0,-10.000000000000044,-0.0,-20.00000000000009,-20.00000000000009,-10.000000000000044,-20.00000000000009,-40.00000000000018,-60.00000000000027
-10.000000000000044,-0.0,10.000000000000044,-0.0,-10.000000000000044,10.000000000000044,-20.00000000000009,-10.000000000000044,-0.0,-10.000000000000044,-30.000000000000135,-50.00000000000022
-0.0,-0.0,10.000000000000044,-0.0,-10.000000000000044,10.000000000000044,-10.000000000000044,-0.0,-0.0,-0.0,-30.000000000000135,-40.00000000000018
-0.0,10.000000000000044,10.000000000000044,-0.0,-10.000000000000044,10.000000000000044,-10.000000000000044,-0.0,-0.0,-0.0,-30.000000000000135,-40.00000000000018
-0.0,10.000000000000044,10.000000000000044,-0.0,-0.0,10.000000000000044,-0.0,10.000000000000044,10.000000000000044,-0.0,-30.000000000000135,-40.00000000000018
-0.0,10.000000000000044,10.000000000000044,-0.0,-0.0,10.000000000000044,-0.0,20.00000000000009,20.00000000000009,-0.0,-30.000000000000135,-50.00000000000022
-0.0,10.000000000000044,-0.0,-0.0,-0.0,-0.0,-0.0,30.000000000000135,20.00000000000009,-0.0,-30.000000000000135,-50.00000000000022
-0.0,10.000000000000044,-0.0,-0.0,-0.0,-0.0,-0.0,30.000000000000135,30.000000000000135,-0.0,-30.000000000000135,-50.00000000000022
-0.0,-0.0,-0.0,-0.0,-0.0,-0.0,-0.0,40.00000000000018,40.00000000000018,-0.0,-30.000000000000135,-50.00000000000022
10.000000000000044,-0.0,-0.0,-10.000000000000044,-0.0,-0.0,-0.0,50.00000000000022,50.00000000000022,10.000000000000044,-30.000000000000135,-50.00000000000022
10.000000000000044,-0.0,-0.0,-10.000000000000044,-0.0,-0.0,-0.0,60.00000000000027,50.00000000000022,10.000000000000044,-30.000000000000135,-50.00000000000022
10.000000000000044,10.000000000000044,-0.0,-10.000000000000044,-0.0,-0.0,-0.0,70.00000000000031,60.00000000000027,20.00000000000009,-20.00000000000009,-40.00000000000018
20.00000000000009,10.000000000000044,-0.0,-10.000000000000044,10.000000000000044,-0.0,-0.0,80.00000000000036,80.00000000000036,30.000000000000135,-20.00000000000009,-40.00000000000018
20.00000000000009,10.000000000000044,-0.0,-20.00000000000009,10.000000000000044,-0.0,-0.0,100.00000000000044,80.00000000000036,40.00000000000018,-10.000000000000044,-40.00000000000018
20.00000000000009,10.000000000000044,-0.0,-20.00000000000009,10.000000000000044,-0.0,-0.0,110.00000000000048,90.0000000000004,50.00000000000022,-10.000000000000044,-40.00000000000018
20.00000000000009,20.00000000000009,-0.0,-20.00000000000009,10.000000000000044,-0.0,-0.0,120.00000000000054,100.00000000000044,50.00000000000022,-0.0,-40.00000000000018
20.00000000000009,20.00000000000009,-0.0,-20.00000000000009,10.000000000000044,-0.0,10.000000000000044,120.00000000000054,100.00000000000044,60.00000000000027,-0.0,-40.00000000000018
30.000000000000135,10.000000000000044,-10.000000000000044,-20.00000000000009,20.00000000000009,-0.0,10.000000000000044,130.00000000000057,110.00000000000048,70.00000000000031,-0.0,-30.000000000000135
30.000000000000135,10.000000000000044,-10.000000000000044,-20.00000000000009,20.00000000000009,-0.0,10.000000000000044,140.00000000000063,110.00000000000048,70.00000000000031,-0.0,-30.000000000000135
40.00000000000018,20.00000000000009,-10.000000000000044,-30.000000000000135,20.00000000000009,-0.0,10.000000000000044,140.00000000000063,110.00000000000048,70.00000000000031,-0.0,-30.000000000000135
40.00000000000018,20.00000000000009,-20.00000000000009,-40.00000000000018,30.000000000000135,-0.0,10.000000000000044,150.00000000000065,120.00000000000054,70.00000000000031,-0.0,-20.00000000000009
50.00000000000022,20.00000000000009,-20.00000000000009,-50.00000000000022,40.00000000000018,-0.0,10.000000000000044,160.0000000000007,120.00000000000054,80.00000000000036,-0.0,-20.00000000000009
60.00000000000027,30.000000000000135,-20.00000000000009,-50.00000000000022,40.00000000000018,-0.0,20.00000000000009,170.00000000000077,130.00000000000057,80.00000000000036,-0.0,-20.00000000000009
70.00000000000031,40.00000000000018,-20.00000000000009,-60.00000000000027,50.00000000000022,-0.0,20.00000000000009,180.0000000000008,140.00000000000063,90.0000000000004,-0.0,-20.00000000000009
80.00000000000036,40.00000000000018,-30.000000000000135,-60.00000000000027,50.00000000000022,-0.0,20.00000000000009,190.00000000000085,150.00000000000065,100.00000000000044,10.000000000000044,-20.00000000000009
80.00000000000036,50.00000000000022,-20.00000000000009,-70.00000000000031,50.00000000000022,10.000000000000044,20.00000000000009,200.00000000000088,160.0000000000007,100.00000000000044,10.000000000000044,-10.000000000000044
90.0000000000004,50.00000000000022,-30.000000000000135,-70.00000000000031,60.00000000000027,10.000000000000044,30.000000000000135,210.00000000000094,170.00000000000077,110.00000000000048,10.000000000000044,-10.000000000000044
100.00000000000044,60.00000000000027,-30.000000000000135,-80.00000000000036,60.00000000000027,10.000000000000044,30.000000000000135,220.00000000000097,190.00000000000085,120.00000000000054,20.00000000000009,-10.000000000000044
100.00000000000044,60.00000000000027,-40.00000000000018,-80.00000000000036,70.00000000000031,10.000000000000044,40.00000000000018,240.00000000000108,200.00000000000088,130.00000000000057,20.00000000000009,-0.0
110.00000000000048,60.00000000000027,-40.00000000000018,-90.0000000000004,70.00000000000031,10.000000000000044,40.00000000000018,260.00000000000114,210.00000000000094,140.00000000000063,20.00000000000009,-0.0
110.00000000000048,70.00000000000031,-40.00000000000018,-90.0000000000004,80.00000000000036,10.000000000000044,50.00000000000022,280.00000000000125,230.00000000000102,150.00000000000065,30.000000000000135,-0.0
110.00000000000048,70.00000000000031,-40.00000000000018,-90.0000000000004,80.00000000000036,10.000000000000044,60.00000000000027,300.0000000000013,240.00000000000108,160.0000000000007,40.00000000000018,-0.0
110.00000000000048,70.00000000000031,-40.00000000000018,-90.0000000000004,80.00000000000036,10.000000000000044,60.00000000000027,320.0000000000014,260.00000000000114,170.00000000000077,40.00000000000018,-0.0
110.00000000000048,70.00000000000031,-40.00000000000018,-100.00000000000044,70.00000000000031,10.000000000000044,70.00000000000031,340.00000000000153,280.00000000000125,190.00000000000085,40.00000000000018,10.000000000000044
110.00000000000048,70.00000000000031,-30.000000000000135,-100.00000000000044,70.00000000000031,10.000000000000044,70.00000000000031,370.00000000000165,300.0000000000013,200.00000000000088,50.00000000000022,10.000000000000044
110.00000000000048,80.00000000000036,-30.000000000000135,-100.00000000000044,70.00000000000031,10.000000000000044,80.00000000000036,390.0000000000017,310.00000000000136,210.00000000000094,60.00000000000027,20.00000000000009
120.00000000000054,80.00000000000036,-30.000000000000135,-100.00000000000044,80.00000000000036,20.00000000000009,80.00000000000036,420.0000000000019,330.0000000000015,220.00000000000097,60.00000000000027,20.00000000000009
110.00000000000048,80.00000000000036,-30.000000000000135,-100.00000000000044,70.00000000000031,20.00000000000009,90.0000000000004,450.000000000002,350.00000000000153,230.00000000000102,60.00000000000027,20.00000000000009
110.00000000000048,80.00000000000036,-30.000000000000135,-100.00000000000044,70.00000000000031,20.00000000000009,100.00000000000044,470.0000000000021,370.00000000000165,240.00000000000108,70.00000000000031,30.000000000000135
110.00000000000048,80.00000000000036,-30.000000000000135,-100.00000000000044,70.00000000000031,20.00000000000009,100.00000000000044,500.0000000000022,390.0000000000017,250.0000000000011,70.00000000000031,40.00000000000018
100.00000000000044,80.00000000000036,-20.00000000000009,-100.00000000000044,60.00000000000027,20.00000000000009,110.00000000000048,520.0000000000023,410.0000000000018,260.00000000000114,80.00000000000036,40.00000000000018
100.00000000000044,80.00000000000036,-10.000000000000044,-90.0000000000004,60.00000000000027,30.000000000000135,110.00000000000048,540.0000000000024,420.0000000000019,270.0000000000012,80.00000000000036,40.00000000000018
90.0000000000004,80.00000000000036,-10.000000000000044,-80.00000000000036,50.00000000000022,30.000000000000135,120.00000000000054,570.0000000000025,440.00000000000193,280.00000000000125,90.0000000000004,50.00000000000022
80.00000000000036,80.00000000000036,-10.000000000000044,-80.00000000000036,40.00000000000018,30.000000000000135,130.00000000000057,590.0000000000026,450.000000000002,290.0000000000013,100.00000000000044,60.00000000000027
80.00000000000036,70.00000000000031,-0.0,-70.00000000000031,40.00000000000018,20.00000000000009,140.00000000000063,610.0000000000027,460.00000000000205,300.0000000000013,100.00000000000044,60.00000000000027
70.00000000000031,70.00000000000031,-0.0,-70.00000000000031,40.00000000000018,20.00000000000009,150.00000000000065,630.0000000000028,470.0000000000021,310.00000000000136,110.00000000000048,70.00000000000031
60.00000000000027,60.00000000000027,-0.0,-60.00000000000027,30.000000000000135,20.00000000000009,150.00000000000065,640.0000000000028,480.00000000000216,310.00000000000136,110.00000000000048,70.00000000000031
60.00000000000027,60.00000000000027,-0.0,-60.00000000000027,30.000000000000135,20.00000000000009,160.0000000000007,650.0000000000028,480.00000000000216,310.00000000000136,120.00000000000054,70.00000000000031
50.00000000000022,50.00000000000022,-0.0,-50.00000000000022,20.00000000000009,20.00000000000009,160.0000000000007,660.000000000003,480.00000000000216,310.00000000000136,120.00000000000054,70.00000000000031
40.00000000000018,50.00000000000022,-0.0,-40.00000000000018,20.00000000000009,20.00000000000009,170.00000000000077,660.000000000003,480.00000000000216,300.0000000000013,120.00000000000054,70.00000000000031
30.000000000000135,40.00000000000018,-0.0,-40.00000000000018,10.000000000000044,20.00000000000009,170.00000000000077,650.0000000000028,460.00000000000205,290.0000000000013,120.00000000000054,80.00000000000036
30.000000000000135,40.00000000000018,-0.0,-30.000000000000135,10.000000000000044,10.000000000000044,170.00000000000077,640.0000000000028,450.000000000002,280.00000000000125,120.00000000000054,80.00000000000036
20.00000000000009,30.000000000000135,-0.0,-20.00000000000009,-0.0,10.000000000000044,170.00000000000077,620.0000000000027,430.00000000000193,270.0000000000012,120.00000000000054,80.00000000000036
10.000000000000044,20.00000000000009,-0.0,-20.00000000000009,-0.0,-0.0,170.00000000000077,600.0000000000026,420.0000000000019,250.0000000000011,110.00000000000048,90.0000000000004
10.000000000000044,10.000000000000044,-0.0,-10.000000000000044,-0.0,-0.0,170.00000000000077,570.0000000000025,400.00000000000176,230.00000000000102,110.00000000000048,100.00000000000044
10.000000000000044,10.000000000000044,-0.0,-10.000000000000044,-0.0,-0.0,160.0000000000007,540.0000000000024,370.00000000000165,210.00000000000094,110.00000000000048,100.00000000000044
10.000000000000044,-0.0,-10.000000000000044,-0.0,10.000000000000044,-0.0,150.00000000000065,500.0000000000022,340.00000000000153,200.00000000000088,110.00000000000048,100.00000000000044
10.000000000000044,-0.0,-10.000000000000044,-0.0,10.000000000000044,-0.0,130.00000000000057,460.00000000000205,310.00000000000136,180.0000000000008,100.00000000000044,100.00000000000044
10.000000000000044,-0.0,-10.000000000000044,-0.0,10.000000000000044,-10.000000000000044,120.00000000000054,410.0000000000018,280.00000000000125,160.0000000000007,100.00000000000044,100.00000000000044
10.000000000000044,-0.0,-10.000000000000044,-0.0,10.000000000000044,-10.000000000000044,100.00000000000044,370.00000000000165,250.0000000000011,150.00000000000065,100.00000000000044,100.00000000000044
10.000000000000044,-0.0,-10.000000000000044,-0.0,10.000000000000044,-10.000000000000044,90.0000000000004,320.0000000000014,220.00000000000097,130.00000000000057,100.00000000000044,90.0000000000004
-0.0,-0.0,-10.000000000000044,-0.0,-0.0,-10.000000000000044,80.00000000000036,280.00000000000125,190.00000000000085,120.00000000000054,90.0000000000004,90.0000000000004
-0.0,-0.0,-10.000000000000044,-0.0,-0.0,-10.000000000000044,70.00000000000031,240.00000000000108,170.00000000000077,110.00000000000048,90.0000000000004,80.00000000000036
-0.0,-0.0,-10.000000000000044,-0.0,-0.0,-0.0,50.00000000000022,210.00000000000094,150.00000000000065,100.00000000000044,90.0000000000004,80.00000000000036
-0.0,-0.0,-0.0,-0.0,-0.0,-0.0,40.00000000000018,180.0000000000008,130.00000000000057,100.00000000000044,80.00000000000036,70.00000000000031
-0.0,-0.0,-10.000000000000044,-0.0,-0.0,-0.0,30.000000000000135,150.00000000000065,110.00000000000048,90.0000000000004,80.00000000000036,60.00000000000027
-0.0,-0.0,-10.000000000000044,-0.0,-0.0,-0.0,20.00000000000009,120.00000000000054,100.00000000000044,80.00000000000036,70.00000000000031,50.00000000000022
-0.0,-0.0,-10.000000000000044,-0.0,-0.0,-0.0,20.00000000000009,100.00000000000044,90.0000000000004,70.00000000000031,70.00000000000031,40.00000000000018
-0.0,-0.0,-10.000000000000044,-0.0,-0.0,-0.0,10.000000000000044,90.0000000000004,80.00000000000036,60.00000000000027,70.00000000000031,40.00000000000018
-0.0,-0.0,-10.000000000000044,-0.0,-0.0,-0.0,-0.0,80.00000000000036,70.00000000000031,60.00000000000027,60.00000000000027,30.000000000000135
-0.0,-0.0,-10.000000000000044,-0.0,-0.0,-0.0,-0.0,60.00000000000027,60.00000000000027,50.00000000000022,60.00000000000027,30.000000000000135
10.000000000000044,-0.0,-10.000000000000044,-0.0,10.000000000000044,-0.0,-0.0,50.00000000000022,50.00000000000022,40.00000000000018,50.00000000000022,20.00000000000009
10.000000000000044,-0.0,-10.000000000000044,-0.0,-0.0,-0.0,-0.0,50.00000000000022,40.00000000000018,40.00000000000018,50.00000000000022,20.00000000000009
10.000000000000044,-0.0,-10.000000000000044,-0.0,10.000000000000044,-0.0,-0.0,40.00000000000018,40.00000000000018,30.000000000000135,40.00000000000018,10.000000000000044
10.000000000000044,-0.0,-10.000000000000044,-0.0,10.000000000000044,-0.0,-0.0,40.00000000000018,30.000000000000135,30.000000000000135,40.00000000000018,10.000000000000044
20.00000000000009,-0.0,-10.000000000000044,-10.000000000000044,10.000000000000044,-0.0,-0.0,30.000000000000135,20.00000000000009,20.00000000000009,30.000000000000135,10.000000000000044
10.000000000000044,-0.0,-10.000000000000044,-10.000000000000044,10.000000000000044,-0.0,10.000000000000044,30.000000000000135,20.00000000000009,20.00000000000009,30.000000000000135,10.000000000000044
10.000000000000044,-0.0,-10.000000000000044,-10.000000000000044,10.000000000000044,-0.0,10.000000000000044,30.000000000000135,20.00000000000009,10.000000000000044,30.000000000000135,10.000000000000044
10.000000000000044,-0.0,-0.0,-10.000000000000044,-0.0,-0.0,10.000000000000044,20.00000000000009,10.000000000000044,10.000000000000044,30.000000000000135,10.000000000000044
10.000000000000044,10.000000000000044,-0.0,-10.000000000000044,-0.0,-0.0,10.000000000000044,20.00000000000009,10.000000000000044,10.000000000000044,30.000000000000135,10.000000000000044
10.000000000000044,10.000000000000044,-0.0,-10.000000000000044,-0.0,-0.0,20.00000000000009,20.00000000000009,10.000000000000044,10.000000000000044,30.000000000000135,10.000000000000044
10.000000000000044,10.000000000000044,-0.0,-10.000000000000044,-0.0,-0.0,20.00000000000009,20.00000000000009,10.000000000000044,10.000000000000044,30.000000000000135,10.000000000000044
20.00000000000009,10.000000000000044,-0.0,-10.000000000000044,10.000000000000044,-0.0,20.00000000000009,20.00000000000009,10.000000000000044,10.000000000000044,30.000000000000135,-0.0
20.00000000000009,10.000000000000044,-10.000000000000044,-10.000000000000044,10.000000000000044,-0.0,20.00000000000009,20.00000000000009,10.000000000000044,10.000000000000044,30.000000000000135,-0.0
20.00000000000009,10.000000000000044,-0.0,-10.000000000000044,10.000000000000044,-0.0,10.000000000000044,20.00000000000009,10.000000000000044,-0.0,20.00000000000009,-0.0
10.000000000000044,10.000000000000044,-0.0,-10.000000000000044,10.000000000000044,-0.0,10.000000000000044,30.000000000000135,20.00000000000009,-0.0,20.00000000000009,-0.0
10.000000000000044,10.000000000000044,-0.0,-10.000000000000044,-0.0,-0.0,10.000000000000044,30.000000000000135,20.00000000000009,-0.0,20.00000000000009,-0.0
10.000000000000044,10.000000000000044,-0.0,-10.000000000000044,-0.0,-0.0,10.000000000000044,30.000000000000135,20.00000000000009,-0.0,20.00000000000009,-0.0
10.000000000000044,10.000000000000044,-0.0,-10.000000000000044,10.000000000000044,-0.0,10.000000000000044,30.000000000000135,20.00000000000009,-0.0,20.00000000000009,-0.0
20.00000000000009,10.000000000000044,-0.0,-10.000000000000044,10.000000000000044,-0.0,10.000000000000044,30.000000000000135,20.00000000000009,-0.0,20.00000000000009,-0.0
20.00000000000009,10.000000000000044,-10.000000000000044,-10.000000000000044,10.000000000000044,-0.0,10.000000000000044,30.000000000000135,20.00000000000009,-0.0,20.00000000000009,-0.0
20.00000000000009,-0.0,-10.000000000000044,-10.000000000000044,20.00000000000009,-0.0,10.000000000000044,30.000000000000135,20.00000000000009,-0.0,20.00000000000009,-0.0
20.00000000000009,-0.0,-10.000000000000044,-10.000000000000044,10.000000000000044,-0.0,10.000000000000044,30.000000000000135,30.000000000000135,-0.0,20.00000000000009,-0.0
10.000000000000044,-0.0,-10.000000000000044,-10.000000000000044,10.000000000000044,-0.0,20.00000000000009,40.00000000000018,30.000000000000135,10.000000000000044,20.00000000000009,-0.0
10.000000000000044,-0.0,-10.000000000000044,-0.0,10.000000000000044,-0.0,10.000000000000044,40.00000000000018,40.00000000000018,10.000000000000044,20.00000000000009,-0.0
10.000000000000044,-0.0,-10.000000000000044,-0.0,10.000000000000044,-0.0,10.000000000000044,50.00000000000022,50.00000000000022,20.00000000000009,20.00000000000009,-0.0
-0.0,-0.0,-10.000000000000044,-0.0,-0.0,-0.0,10.000000000000044,50.00000000000022,60.00000000000027,30.000000000000135,20.00000000000009,10.000000000000044
10.000000000000044,-0.0,-10.000000000000044,-0.0,10.000000000000044,-0.0,10.000000000000044,60.00000000000027,60.00000000000027,40.00000000000018,20.00000000000009,20.00000000000009
10.000000000000044,-0.0,-10.000000000000044,-0.0,10.000000000000044,-0.0,10.000000000000044,60.00000000000027,70.00000000000031,40.00000000000018,20.00000000000009,20.00000000000009
10.000000000000044,-0.0,-10.000000000000044,-0.0,10.000000000000044,-0.0,-0.0,70.00000000000031,70.00000000000031,40.00000000000018,30.000000000000135,30.000000000000135
10.000000000000044,-0.0,-10.000000000000044,-0.0,10.000000000000044,-0.0,10.000000000000044,70.00000000000031,70.00000000000031,50.00000000000022,30.000000000000135,40.00000000000018
10.000000000000044,-0.0,-10.000000000000044,-10.000000000000044,10.000000000000044,-0.0,10.000000000000044,70.00000000000031,70.00000000000031,50.00000000000022,30.000000000000135,40.00000000000018
10.000000000000044,-0.0,-20.00000000000009,-0.0,10.000000000000044,-10.000000000000044,10.000000000000044,70.00000000000031,80.00000000000036,50.00000000000022,40.00000000000018,40.00000000000018
10.000000000000044,-0.0,-20.00000000000009,-0.0,10.000000000000044,-10.000000000000044,10.000000000000044,70.00000000000031,80.00000000000036,60.00000000000027,40.00000000000018,40.00000000000018
10.000000000000044,-0.0,-20.00000000000009,-0.0,10.000000000000044,-10.000000000000044,10.000000000000044,70.00000000000031,80.00000000000036,60.00000000000027,40.00000000000018,40.00000000000018
-0.0,-0.0,-20.00000000000009,-0.0,10.000000000000044,-10.000000000000044,10.000000000000044,60.00000000000027,70.00000000000031,60.00000000000027,40.00000000000018,30.000000000000135
-0.0,-10.000000000000044,-20.00000000000009,-0.0,10.000000000000044,-10.000000000000044,10.000000000000044,60.00000000000027,70.00000000000031,60.00000000000027,30.000000000000135,20.00000000000009
-0.0,-10.000000000000044,-20.00000000000009,-0.0,10.000000000000044,-10.000000000000044,10.000000000000044,60.00000000000027,70.00000000000031,60.00000000000027,30.000000000000135,20.00000000000009
10.000000000000044,-10.000000000000044,-20.00000000000009,-0.0,10.000000000000044,-10.000000000000044,-0.0,60.00000000000027,70.00000000000031,60.00000000000027,40.00000000000018,20.00000000000009
10.000000000000044,-10.000000000000044,-20.00000000000009,-0.0,10.000000000000044,-20.00000000000009,-0.0,60.00000000000027,70.00000000000031,60.00000000000027,40.00000000000018,30.000000000000135
10.000000000000044,-10.000000000000044,-20.00000000000009,-0.0,10.000000000000044,-10.000000000000044,-0.0,60.00000000000027,70.00000000000031,60.00000000000027,40.00000000000018,30.000000000000135
10.000000000000044,-10.000000000000044,-20.00000000000009,-0.0,10.000000000000044,-10.000000000000044,-0.0,60.00000000000027,70.00000000000031,60.00000000000027,50.00000000000022,30.000000000000135
10.000000000000044,-10.000000000000044,-20.00000000000009,-0.0,10.000000000000044,-10.000000000000044,-0.0,60.00000000000027,60.00000000000027,50.00000000000022,40.00000000000018,30.000000000000135
-0.0,-10.000000000000044,-10.000000000000044,-0.0,10.000000000000044,-10.000000000000044,-0.0,50.00000000000022,60.00000000000027,50.00000000000022,40.00000000000018,30.000000000000135
-0.0,-0.0,-10.000000000000044,-0.0,-0.0,-10.000000000000044,-0.0,50.00000000000022,50.00000000000022,50.00000000000022,30.000000000000135,30.000000000000135
-0.0,-0.0,-10.000000000000044,-0.0,-0.0,-10.000000000000044,-0.0,40.00000000000018,50.00000000000022,40.00000000000018,30.000000000000135,20.00000000000009
-0.0,-10.000000000000044,-10.000000000000044,-0.0,-0.0,-10.000000000000044,-0.0,40.00000000000018,40.00000000000018,30.000000000000135,20.00000000000009,20.00000000000009
-0.0,-10.000000000000044,-10.000000000000044,-0.0,10.000000000000044,-10.000000000000044,-0.0,30.000000000000135,40.00000000000018,30.000000000000135,20.00000000000009,20.00000000000009
-0.0,-10.000000000000044,-20.00000000000009,-0.0,10.000000000000044,-10.000000000000044,-0.0,30.000000000000135,30.000000000000135,30.000000000000135,20.00000000000009,10.000000000000044
-0.0,-10.000000000000044,-20.00000000000009,-0.0,10.000000000000044,-20.00000000000009,-0.0,20.00000000000009,30.000000000000135,30.000000000000135,20.00000000000009,10.000000000000044
-0.0,-10.000000000000044,-20.00000000000009,-0.0,10.000000000000044,-20.00000000000009,-0.0,20.00000000000009,30.000000000000135,30.000000000000135,20.00000000000009,20.00000000000009
-0.0,-20.00000000000009,-20.00000000000009,-0.0,10.000000000000044,-20.00000000000009,-0.0,20.00000000000009,30.000000000000135,20.00000000000009,20.00000000000009,20.00000000000009
-0.0,-20.00000000000009,-20.00000000000009,-0.0,10.000000000000044,-20.00000000000009,-0.0,30.000000000000135,30.000000000000135,20.00000000000009,20.00000000000009,30.000000000000135
-0.0,-20.00000000000009,-20.00000000000009,-0.0,10.000000000000044,-20.00000000000009,-0.0,30.000000000000135,30.000000000000135,20.00000000000009,20.00000000000009,20.00000000000009
-0.0,-20.00000000000009,-20.00000000000009,-0.0,-0.0,-10.000000000000044,-0.0,30.000000000000135,30.000000000000135,20.00000000000009,10.000000000000044,20.00000000000009
-0.0,-10.000000000000044,-10.000000000000044,-0.0,-0.0,-10.000000000000044,-0.0,30.000000000000135,30.000000000000135,30.000000000000135,10.000000000000044,10.000000000000044
-0.0,-10.000000000000044,-10.000000000000044,-0.0,10.000000000000044,-10.000000000000044,-0.0,30.000000000000135,30.000000000000135,20.00000000000009,10.000000000000044,10.000000000000044
-0.0,-10.000000000000044,-10.000000000000044,-0.0,10.000000000000044,-10.000000000000044,-0.0,30.000000000000135,30.000000000000135,20.00000000000009,10.000000000000044,10.000000000000044
-0.0,-10.000000000000044,-20.00000000000009,-0.0,10.000000000000044,-10.000000000000044,-0.0,20.00000000000009,30.000000000000135,20.00000000000009,10.000000000000044,10.000000000000044
-0.0,-10.000000000000044,-20.00000000000009,-0.0,10.000000000000044,-10.000000000000044,-0.0,20.00000000000009,30.000000000000135,30.000000000000135,10.000000000000044,10.000000000000044
-0.0,-10.000000000000044,-20.00000000000009,-0.0,10.000000000000044,-10.000000000000044,-0.0,20.00000000000009,30.000000000000135,30.000000000000135,20.00000000000009,20.00000000000009
-0.0,-10.000000000000044,-20.00000000000009,-0.0,10.000000000000044,-10.000000000000044,-0.0,20.00000000000009,30.000000000000135,30.000000000000135,20.00000000000009,20.00000000000009
-0.0,-10.000000000000044,-20.00000000000009,-0.0,10.000000000000044,-10.000000000000044,-0.0,20.00000000000009,30.000000000000135,30.000000000000135,20.00000000000009,20.00000000000009
-0.0,-10.000000000000044,-20.00000000000009,-0.0,10.000000000000044,-10.000000000000044,-0.0,20.00000000000009,30.000000000000135,30.000000000000135,20.00000000000009,20.00000000000009
-0.0,-10.000000000000044,-20.00000000000009,-0.0,10.000000000000044,-10.000000000000044,-0.0,20.00000000000009,30.000000000000135,20.00000000000009,20.00000000000009,20.00000000000009
-0.0,-10.000000000000044,-20.00000000000009,-0.0,10.000000000000044,-10.000000000000044,-0.0,20.00000000000009,30.000000000000135,20.00000000000009,10.000000000000044,10.000000000000044
-0.0,-10.000000000000044,-20.00000000000009,-0.0,10.000000000000044,-10.000000000000044,-0.0,20.00000000000009,30.000000000000135,20.00000000000009,10.000000000000044,10.000000000000044
-0.0,-10.000000000000044,-20.00000000000009,-0.0,10.000000000000044,-10.000000000000044,-0.0,20.00000000000009,30.000000000000135,20.00000000000009,10.000000000000044,-0.0
-0.0,-10.000000000000044,-20.00000000000009,-0.0,10.000000000000044,-10.000000000000044,-0.0,20.00000000000009,30.000000000000135,20.00000000000009,10.000000000000044,10.000000000000044
-0.0,-10.000000000000044,-20.00000000000009,-0.0,-0.0,-10.000000000000044,-0.0,20.00000000000009,30.000000000000135,20.00000000000009,10.000000000000044,10.000000000000044
-0.0,-10.000000000000044,-10.000000000000044,-0.0,-0.0,-10.000000000000044,-0.0,20.00000000000009,30.000000000000135,20.00000000000009,10.000000000000044,10.000000000000044
-0.0,-10.000000000000044,-10.000000000000044,-0.0,-0.0,-10.000000000000044,-0.0,20.00000000000009,30.000000000000135,30.000000000000135,20.00000000000009,20.00000000000009
-0.0,-10.000000000000044,-10.000000000000044,-0.0,-0.0,-10.000000000000044,-0.0,20.00000000000009,30.000000000000135,30.000000000000135,20.00000000000009,20.00000000000009
-0.0,-10.000000000000044,-10.000000000000044,-0.0,-0.0,-10.000000000000044,-0.0,10.000000000000044,30.000000000000135,20.00000000000009,20.00000000000009,20.00000000000009
-0.0,-10.000000000000044,-10.000000000000044,-0.0,-0.0,-10.000000000000044,-0.0,10.000000000000044,30.000000000000135,20.00000000000009,10.000000000000044,20.00000000000009
-0.0,-10.000000000000044,-10.000000000000044,-0.0,-0.0,-10.000000000000044,-0.0,10.000000000000044,20.00000000000009,10.000000000000044,10.000000000000044,10.000000000000044
-0.0,-0.0,-10.000000000000044,-0.0,-0.0,-0.0,-0.0,10.000000000000044,20.00000000000009,10.000000000000044,10.000000000000044,10.000000000000044
-0.0,-0.0,-10.000000000000044,-0.0,-0.0,-0.0,-0.0,-0.0,20.00000000000009,10.000000000000044,-0.0,-0.0
-0.0,-0.0,-0.0,-0.0,-0.0,-0.0,-0.0,-0.0,20.00000000000009,10.000000000000044,-0.0,10.000000000000044
-0.0,-0.0,-0.0,-0.0,-0.0,-0.0,-0.0,-0.0,20.00000000000009,20.00000000000009,-0.0,10.000000000000044
-0.0,-0.0,-0.0,-0.0,-0.0,-0.0,-0.0,-0.0,20.00000000000009,20.00000000000009,10.000000000000044,10.000000000000044
-0.0,-0.0,-0.0,-0.0,-0.0,-0.0,-0.0,-0.0,20.00000000000009,20.00000000000009,10.000000000000044,10.000000000000044
-0.0,-10.000000000000044,-0.0,-0.0,-0.0,-0.0,-0.0,-0.0,20.00000000000009,20.00000000000009,10.000000000000044,20.00000000000009
-0.0,-10.000000000000044,-0.0,-0.0,-0.0,-10.000000000000044,-0.0,-0.0,20.00000000000009,20.00000000000009,10.000000000000044,10.000000000000044
-0.0,-10.000000000000044,-0.0,-0.0,-0.0,-10.000000000000044,-0.0,-0.0,20.00000000000009,20.00000000000009,10.000000000000044,10.000000000000044
-0.0,-10.000000000000044,-0.0,-0.0,-0.0,-0.0,-0.0,-0.0,20.00000000000009,20.00000000000009,-0.0,10.000000000000044
-0.0,-10.000000000000044,-0.0,-0.0,-0.0,-0.0,-0.0,-0.0,20.00000000000009,20.00000000000009,-0.0,10.000000000000044
-0.0,-10.000000000000044,-0.0,-0.0,-0.0,-0.0,-0.0,-0.0,20.00000000000009,20.00000000000009,-0.0,10.000000000000044
-0.0,-10.000000000000044,-0.0,-0.0,-0.0,-0.0,-0.0,-0.0,20.00000000000009,20.00000000000009,-0.0,10.000000000000044
-0.0,-10.000000000000044,-0.0,-0.0,-0.0,-0.0,-0.0,-0.0,20.00000000000009,20.00000000000009,-0.0,10.000000000000044
-0.0,-0.0,-0.0,-0.0,-0.0,-0.0,-0.0,-0.0,20.00000000000009,10.000000000000044,-0.0,-0.0
-0.0,-10.000000000000044,-0.0,-0.0,-0.0,-0.0,-0.0,-0.0,20.00000000000009,20.00000000000009,-0.0,-0.0
-0.0,-0.0,-0.0,-0.0,-0.0,-0.0,-0.0,-0.0,20.00000000000009,10.000000000000044,-0.0,-0.0
-0.0,-0.0,-0.0,-0.0,-0.0,-0.0,-0.0,-0.0,20.00000000000009,10.000000000000044,-0.0,-0.0
-0.0,-0.0,-0.0,-0.0,-0.0,-0.0,-0.0,-0.0,20.00000000000009,10.000000000000044,-0.0,-0.0
-0.0,-0.0,-0.0,-0.0,-0.0,-0.0,-0.0,-0.0,20.00000000000009,10.000000000000044,-0.0,-0.0
-0.0,-0.0,-0.0,-0.0,-0.0,-0.0,-0.0,-0.0,10.000000000000044,10.000000000000044,-0.0,-0.0
-0.0,-10.000000000000044,-0.0,-0.0,-0.0,-0.0,-0.0,-0.0,10.000000000000044,10.000000000000044,-0.0,-0.0
-10.000000000000044,-10.000000000000044,-0.0,10.000000000000044,-0.0,-0.0,-10.000000000000044,-10.000000000000044,10.000000000000044,10.000000000000044,-0.0,-0.0
-10.000000000000044,-10.000000000000044,-0.0,10.000000000000044,-0.0,-0.0,-10.000000000000044,-10.000000000000044,10.000000000000044,10.000000000000044,-0.0,-0.0
-10.000000000000044,-10.000000000000044,-0.0,10.000000000000044,-0.0,-0.0,-10.000000000000044,-10.000000000000044,10.000000000000044,10.000000000000044,-0.0,-0.0
-10.000000000000044,-10.000000000000044,-0.0,10.000000000000044,-0.0,-0.0,-10.000000000000044,-10.000000000000044,10.000000000000044,-0.0,-0.0,-0.0
-10.000000000000044,-10.000000000000044,-0.0,-0.0,-0.0,-0.0,-10.000000000000044,-10.000000000000044,10.000000000000044,-0.0,-0.0,-0.0
-0.0,-0.0,-0.0,-0.0,-0.0,-0.0,-10.000000000000044,-10.000000000000044,10.000000000000044,-0.0,-0.0,-0.0
-0.0,-0.0,-0.0,-0.0,-0.0,-0.0,-10.000000000000044,-10.000000000000044,-0.0,-0.0,-0.0,-0.0
-0.0,-0.0,-0.0,-0.0,-0.0,-0.0,-0.0,-20.00000000000009,-0.0,-0.0,-0.0,-0.0
-0.0,-0.0,-0.0,-0.0,-0.0,-0.0,-0.0,-20.00000000000009,-0.0,-0.0,-0.0,-0.0
-0.0,-0.0,-0.0,-0.0,-0.0,-0.0,-0.0,-20.00000000000009,-0.0,-0.0,-0.0,-0.0
-0.0,-0.0,-0.0,-0.0,-0.0,-0.0,-0.0,-20.00000000000009,-0.0,-0.0,-0.0,-0.0
-0.0,-0.0,-0.0,-0.0,-0.0,-0.0,-0.0,-20.00000000000009,-0.0,-0.0,-0.0,-0.0
-0.0,-0.0,-0.0,-0.0,-0.0,-0.0,-0.0,-20.00000000000009,-0.0,-0.0,-0.0,-0.0
-0.0,-0.0,-0.0,-0.0,-0.0,-0.0,-0.0,-20.00000000000009,-0.0,-0.0,-0.0,-0.0
-0.0,-0.0,-0.0,-0.0,-0.0,-0.0,-0.0,-20.00000000000009,-0.0,-0.0,-0.0,-0.0
-0.0,-0.0,-0.0,-0.0,-0.0,-0.0,-0.0,-20.00000000000009,-0.0,-0.0,-0.0,-0.0
-0.0,-0.0,-0.0,-0.0,-0.0,-0.0,-0.0,-20.00000000000009,-0.0,-0.0,-0.0,-0.0
-10.000000000000044,-10.000000000000044,-0.0,10.000000000000044,-0.0,-0.0,-0.0,-20.00000000000009,-0.0,-0.0,-0.0,-0.0
-10.000000000000044,-10.000000000000044,-0.0,10.000000000000044,-0.0,-0.0,-0.0,-30.000000000000135,-0.0,-0.0,-0.0,-0.0
-10.000000000000044,-10.000000000000044,-0.0,-0.0,-0.0,-0.0,-0.0,-30.000000000000135,-0.0,-0.0,-0.0,-0.0
-0.0,-10.000000000000044,-0.0,-0.0,-0.0,-0.0,-0.0,-30.000000000000135,-0.0,-0.0,-0.0,-0.0
-0.0,-0.0,-0.0,-0.0,-0.0,-0.0,-0.0,-30.000000000000135,-0.0,-0.0,-0.0,-0.0
-0.0,-0.0,-0.0,-0.0,-0.0,-0.0,-0.0,-30.000000000000135,-0.0,-0.0,-0.0,-0.0
-0.0,-0.0,-0.0,-0.0,-0.0,-0.0,-0.0,-30.000000000000135,-0.0,-0.0,-0.0,-0.0
-0.0,-0.0,-0.0,-0.0,-0.0,-0.0,-0.0,-30.000000000000135,-0.0,-0.0,-0.0,-0.0
-0.0,-0.0,-0.0,-0.0,-0.0,-0.0,-0.0,-30.000000000000135,-0.0,-0.0,-0.0,-0.0
-0.0,-0.0,-0.0,-0.0,-0.0,-0.0,-0.0,-30.000000000000135,-0.0,-0.0,-0.0,-0.0
-0.0,-0.0,-0.0,-0.0,-0.0,-0.0,-0.0,-30.000000000000135,-0.0,-0.0,-0.0,-0.0
-0.0,-0.0,-0.0,-0.0,-0.0,-0.0,-0.0,-30.000000000000135,-0.0,-0.0,-0.0,-0.0
-10.000000000000044,-0.0,-0.0,-0.0,-0.0,-0.0,-0.0,-30.000000000000135,-0.0,-0.0,-0.0,-0.0
-10.000000000000044,-0.0,-0.0,-0.0,-10.000000000000044,-0.0,-0.0,-30.000000000000135,-0.0,-0.0,-0.0,-0.0
-10.000000000000044,-0.0,-0.0,-0.0,-10.000000000000044,-0.0,-0.0,-30.000000000000135,-0.0,-10.000000000000044,-0.0,-0.0
-10.000000000000044,-0.0,-0.0,-0.0,-10.000000000000044,-0.0,-0.0,-30.000000000000135,-0.0,-10.000000000000044,-10.000000000000044,-10.000000000000044
-10.000000000000044,-0.0,-0.0,-0.0,-0.0,-0.0,-0.0,-30.000000000000135,-0.0,-10.000000000000044,-10.000000000000044,-10.000000000000044
-0.0,-0.0,10.000000000000044,-0.0,-0.0,-0.0,-0.0,-30.000000000000135,-0.0,-10.000000000000044,-10.000000000000044,-10.000000000000044
-0.0,-0.0,10.000000000000044,-0.0,-0.0,-0.0,-0.0,-30.000000000000135,-0.0,-0.0,-10.000000000000044,-10.000000000000044
-0.0,-0.0,10.000000000000044,-0.0,-0.0,10.000000000000044,-0.0,-30.000000000000135,-0.0,-0.0,-0.0,-10.000000000000044
-0.0,-0.0,10.000000000000044,-0.0,-0.0,10.000000000000044,-0.0,-30.000000000000135,-0.0,-0.0,-0.0,-0.0
-0.0,-0.0,10.000000000000044,-0.0,-10.000000000000044,10.000000000000044,-0.0,-30.000000000000135,-0.0,-0.0,-0.0,-0.0
-0.0,-0.0,10.000000000000044,-0.0,-10.000000000000044,-0.0,-0.0,-30.000000000000135,-0.0,-0.0,-0.0,-0.0
-0.0,-0.0,10.000000000000044,-0.0,-10.000000000000044,-0.0,-0.0,-30.000000000000135,-10.000000000000044,-10.000000000000044,-0.0,-0.0
-0.0,-0.0,10.000000000000044,-0.0,-10.000000000000044,-0.0,-0.0,-30.000000000000135,-10.000000000000044,-10.000000000000044,-0.0,-0.0
-0.0,-0.0,10.000000000000044,-0.0,-0.0,-0.0,-0.0,-30.000000000000135,-10.000000000000044,-10.000000000000044,-0.0,-0.0
-0.0,-0.0,-0.0,-0.0,-0.0,-0.0,-0.0,-30.000000000000135,-10.000000000000044,-20.00000000000009,-0.0,-0.0
-0.0,-0.0,-0.0,-0.0,-0.0,-0.0,-0.0,-30.000000000000135,-20.00000000000009,-20.00000000000009,-10.000000000000044,-10.000000000000044
-0.0,-0.0,-0.0,-0.0,-0.0,-0.0,-0.0,-30.000000000000135,-20.00000000000009,-20.00000000000009,-10.000000000000044,-10.000000000000044
-0.0,-0.0,-0.0,-0.0,-0.0,-0.0,-0.0,-30.000000000000135,-20.00000000000009,-20.00000000000009,-10.000000000000044,-10.000000000000044
-0.0,-0.0,-0.0,-0.0,-0.0,-0.0,-0.0,-30.000000000000135,-20.00000000000009,-20.00000000000009,-10.000000000000044,-10.000000000000044
-0.0,-0.0,-0.0,-0.0,-0.0,-0.0,-0.0,-30.000000000000135,-20.00000000000009,-10.000000000000044,-10.000000000000044,-10.000000000000044
-10.000000000000044,-0.0,-0.0,-0.0,-0.0,-0.0,-0.0,-30.000000000000135,-10.000000000000044,-10.000000000000044,-0.0,-10.000000000000044
-10.000000000000044,-0.0,10.000000000000044,-0.0,-10.000000000000044,-0.0,-0.0,-30.000000000000135,-10.000000000000044,-10.000000000000044,-0.0,-0.0
-0.0,-0.0,-0.0,-0.0,-0.0,-0.0,-0.0,-20.00000000000009,-10.000000000000044,-0.0,-0.0,-0.0
-0.0,-0.0,-0.0,-0.0,-0.0,-0.0,-0.0,-20.00000000000009,-10.000000000000044,-0.0,-0.0,-0.0
-0.0,-0.0,10.000000000000044,-0.0,-0.0,10.000000000000044,-0.0,-20.00000000000009,-10.000000000000044,-0.0,-0.0,-0.0
-0.0,10.000000000000044,10.000000000000044,-10.000000000000044,-0.0,10.000000000000044,-0.0,-20.00000000000009,-10.000000000000044,-10.000000000000044,-0.0,-0.0
-0.0,10.000000000000044,20.00000000000009,-10.000000000000044,-0.0,20.00000000000009,-0.0,-20.00000000000009,-10.000000000000044,-10.000000000000044,-0.0,-0.0
-0.0,20.00000000000009,20.00000000000009,-20.00000000000009,-10.000000000000044,30.000000000000135,-0.0,-20.00000000000009,-10.000000000000044,-10.000000000000044,-0.0,-10.000000000000044
10.000000000000044,30.000000000000135,30.000000000000135,-30.000000000000135,-10.000000000000044,40.00000000000018,-0.0,-20.00000000000009,-10.000000000000044,-10.000000000000044,-10.000000000000044,-10.000000000000044
10.000000000000044,40.00000000000018,40.00000000000018,-30.000000000000135,-10.000000000000044,50.00000000000022,-0.0,-10.000000000000044,-10.000000000000044,-10.000000000000044,-10.000000000000044,-10.000000000000044
10.000000000000044,50.00000000000022,40.00000000000018,-40.00000000000018,-10.000000000000044,50.00000000000022,-0.0,-20.00000000000009,-10.000000000000044,-10.000000000000044,-10.000000000000044,-10.000000000000044
20.00000000000009,60.00000000000027,40.00000000000018,-40.00000000000018,-0.0,50.00000000000022,-0.0,-20.00000000000009,-10.000000000000044,-10.000000000000044,-10.000000000000044,-10.000000000000044
30.000000000000135,70.00000000000031,30.000000000000135,-50.00000000000022,-0.0,50.00000000000022,-0.0,-20.00000000000009,-10.000000000000044,-10.000000000000044,-20.00000000000009,-10.000000000000044
40.00000000000018,70.00000000000031,20.00000000000009,-60.00000000000027,-0.0,40.00000000000018,-0.0,-20.00000000000009,-20.00000000000009,-10.000000000000044,-20.00000000000009,-10.000000000000044
50.00000000000022,70.00000000000031,10.000000000000044,-60.00000000000027,10.000000000000044,40.00000000000018,-0.0,-20.00000000000009,-20.00000000000009,-20.00000000000009,-20.00000000000009,-10.000000000000044
50.00000000000022,70.00000000000031,10.000000000000044,-60.00000000000027,10.000000000000044,40.00000000000018,-0.0,-20.00000000000009,-20.00000000000009,-20.00000000000009,-20.00000000000009,-10.000000000000044
50.00000000000022,70.00000000000031,-0.0,-60.00000000000027,20.00000000000009,30.000000000000135,-0.0,-10.000000000000044,-20.00000000000009,-20.00000000000009,-20.00000000000009,-20.00000000000009
60.00000000000027,60.00000000000027,-0.0,-60.00000000000027,20.00000000000009,20.00000000000009,-0.0,-10.000000000000044,-20.00000000000009,-20.00000000000009,-20.00000000000009,-20.00000000000009
60.00000000000027,50.00000000000022,-0.0,-50.00000000000022,30.000000000000135,10.000000000000044,-0.0,-10.000000000000044,-20.00000000000009,-20.00000000000009,-20.00000000000009,-20.00000000000009
60.00000000000027,50.00000000000022,-20.00000000000009,-50.00000000000022,30.000000000000135,-0.0,-0.0,-10.000000000000044,-20.00000000000009,-10.000000000000044,-20.00000000000009,-10.000000000000044
60.00000000000027,40.00000000000018,-30.000000000000135,-40.00000000000018,40.00000000000018,-0.0,-0.0,-10.000000000000044,-20.00000000000009,-10.000000000000044,-20.00000000000009,-10.000000000000044
60.00000000000027,30.000000000000135,-30.000000000000135,-40.00000000000018,40.00000000000018,-0.0,-0.0,-10.000000000000044,-10.000000000000044,-10.000000000000044,-10.000000000000044,-10.000000000000044
60.00000000000027,20.00000000000009,-40.00000000000018,-40.00000000000018,50.00000000000022,-10.000000000000044,-0.0,-10.000000000000044,-10.000000000000044,-10.000000000000044,-10.000000000000044,-0.0
60.00000000000027,10.000000000000044,-50.00000000000022,-30.000000000000135,50.00000000000022,-10.000000000000044,-0.0,-10.000000000000044,-10.000000000000044,-10.000000000000044,-10.000000000000044,-0.0
50.00000000000022,-0.0,-40.00000000000018,-30.000000000000135,40.00000000000018,-10.000000000000044,-0.0,-10.000000000000044,-20.00000000000009,-10.000000000000044,-10.000000000000044,-0.0
40.00000000000018,-0.0,-40.00000000000018,-20.00000000000009,40.00000000000018,-10.000000000000044,-0.0,-10.000000000000044,-20.00000000000009,-10.000000000000044,-10.000000000000044,-0.0
20.00000000000009,-0.0,-30.000000000000135,-10.000000000000044,30.000000000000135,-20.00000000000009,-0.0,-10.000000000000044,-10.000000000000044,-10.000000000000044,-10.000000000000044,-0.0
10.000000000000044,-0.0,-30.000000000000135,-0.0,20.00000000000009,-20.00000000000009,-0.0,-0.0,-10.000000000000044,-10.000000000000044,-0.0,-0.0
-0.0,-10.000000000000044,-20.00000000000009,-0.0,10.000000000000044,-10.000000000000044,-0.0,-0.0,-0.0,-0.0,-0.0,-0.0
-0.0,-10.000000000000044,-10.000000000000044,-0.0,-0.0,-10.000000000000044,-0.0,-0.0,-0.0,-0.0,-0.0,-0.0
-0.0,-10.000000000000044,-0.0,10.000000000000044,-0.0,-10.000000000000044,-0.0,-0.0,-0.0,-0.0,-0.0,-0.0
-10.000000000000044,-10.000000000000044,-0.0,10.000000000000044,-0.0,-10.000000000000044,10.000000000000044,10.000000000000044,10.000000000000044,10.000000000000044,-0.0,10.000000000000044
-10.000000000000044,-10.000000000000044,-0.0,10.000000000000044,-0.0,-10.000000000000044,10.000000000000044,20.00000000000009,10.000000000000044,10.000000000000044,10.000000000000044,20.00000000000009
-10.000000000000044,-10.000000000000044,-0.0,10.000000000000044,-0.0,-10.000000000000044,20.00000000000009,20.00000000000009,20.00000000000009,20.00000000000009,10.000000000000044,20.00000000000009
-10.000000000000044,-10.000000000000044,-0.0,10.000000000000044,-0.0,-0.0,30.000000000000135,30.000000000000135,20.00000000000009,20.00000000000009,20.00000000000009,20.00000000000009
-10.000000000000044,-10.000000000000044,-0.0,10.000000000000044,-0.0,-0.0,30.000000000000135,30.000000000000135,20.00000000000009,20.00000000000009,20.00000000000009,20.00000000000009
-10.000000000000044,-10.000000000000044,-0.0,10.000000000000044,-0.0,-10.000000000000044,30.000000000000135,40.00000000000018,20.00000000000009,20.00000000000009,20.00000000000009,20.00000000000009
-10.000000000000044,-10.000000000000044,-0.0,10.000000000000044,-0.0,-10.000000000000044,20.00000000000009,30.000000000000135,10.000000000000044,10.000000000000044,20.00000000000009,20.00000000000009
-20.00000000000009,-10.000000000000044,-0.0,10.000000000000044,-10.000000000000044,-0.0,-0.0,20.00000000000009,-0.0,10.000000000000044,20.00000000000009,20.00000000000009
-30.000000000000135,-10.000000000000044,-0.0,20.00000000000009,-20.00000000000009,-0.0,-0.0,10.000000000000044,-0.0,-0.0,20.00000000000009,20.00000000000009
-40.00000000000018,-10.000000000000044,20.00000000000009,20.00000000000009,-30.000000000000135,-0.0,-20.00000000000009,-0.0,-0.0,-0.0,10.000000000000044,20.00000000000009
-50.00000000000022,-10.000000000000044,40.00000000000018,20.00000000000009,-50.00000000000022,10.000000000000044,-30.000000000000135,-0.0,-0.0,-0.0,10.000000000000044,20.00000000000009
-50.00000000000022,-0.0,50.00000000000022,10.000000000000044,-50.00000000000022,20.00000000000009,-30.000000000000135,-0.0,-10.000000000000044,-0.0,10.000000000000044,20.00000000000009
-20.00000000000009,-0.0,60.00000000000027,-10.000000000000044,-40.00000000000018,40.00000000000018,-40.00000000000018,-0.0,-10.000000000000044,-0.0,10.000000000000044,20.00000000000009
20.00000000000009,30.000000000000135,50.00000000000022,-50.00000000000022,-20.00000000000009,60.00000000000027,-30.000000000000135,-0.0,-20.00000000000009,-10.000000000000044,10.000000000000044,10.000000000000044
80.00000000000036,80.00000000000036,40.00000000000018,-120.00000000000054,20.00000000000009,90.0000000000004,-30.000000000000135,-0.0,-30.000000000000135,-20.00000000000009,-0.0,-0.0
170.00000000000077,140.00000000000063,20.00000000000009,-200.00000000000088,70.00000000000031,110.00000000000048,-20.00000000000009,-10.000000000000044,-40.00000000000018,-30.000000000000135,-0.0,-0.0
270.0000000000012,200.00000000000088,-20.00000000000009,-270.0000000000012,140.00000000000063,120.00000000000054,-20.00000000000009,-10.000000000000044,-50.00000000000022,-40.00000000000018,-10.000000000000044,-0.0
360.0000000000016,260.00000000000114,-80.00000000000036,-320.0000000000014,220.00000000000097,90.0000000000004,-10.000000000000044,-20.00000000000009,-50.00000000000022,-50.00000000000022,-20.00000000000009,-10.000000000000044
410.0000000000018,280.00000000000125,-160.0000000000007,-330.0000000000015,280.00000000000125,40.00000000000018,-10.000000000000044,-20.00000000000009,-50.00000000000022,-50.00000000000022,-20.00000000000009,-20.00000000000009
420.0000000000019,240.00000000000108,-260.00000000000114,-290.0000000000013,330.0000000000015,-50.00000000000022,-10.000000000000044,-30.000000000000135,-50.00000000000022,-50.00000000000022,-30.000000000000135,-30.000000000000135
390.0000000000017,160.0000000000007,-350.00000000000153,-210.00000000000094,360.0000000000016,-150.00000000000065,-10.000000000000044,-30.000000000000135,-50.00000000000022,-50.00000000000022,-30.000000000000135,-30.000000000000135
320.0000000000014,40.00000000000018,-410.0000000000018,-120.00000000000054,360.0000000000016,-240.00000000000108,-10.000000000000044,-30.000000000000135,-50.00000000000022,-50.00000000000022,-30.000000000000135,-30.000000000000135
240.00000000000108,-80.00000000000036,-440.00000000000193,-40.00000000000018,330.0000000000015,-310.00000000000136,-10.000000000000044,-30.000000000000135,-60.00000000000027,-50.00000000000022,-30.000000000000135,-20.00000000000009
170.00000000000077,-180.0000000000008,-420.0000000000019,30.000000000000135,290.0000000000013,-330.0000000000015,-10.000000000000044,-30.000000000000135,-60.00000000000027,-50.00000000000022,-30.000000000000135,-20.00000000000009
100.00000000000044,-240.00000000000108,-360.0000000000016,60.00000000000027,230.00000000000102,-300.0000000000013,-10.000000000000044,-40.00000000000018,-60.00000000000027,-50.00000000000022,-30.000000000000135,-20.00000000000009
50.00000000000022,-250.0000000000011,-280.00000000000125,80.00000000000036,160.0000000000007,-250.0000000000011,-10.000000000000044,-40.00000000000018,-50.00000000000022,-40.00000000000018,-20.00000000000009,-20.00000000000009
10.000000000000044,-220.00000000000097,-190.00000000000085,80.00000000000036,100.00000000000044,-180.0000000000008,-10.000000000000044,-30.000000000000135,-40.00000000000018,-40.00000000000018,-20.00000000000009,-30.000000000000135
-10.000000000000044,-170.00000000000077,-110.00000000000048,60.00000000000027,50.00000000000022,-120.00000000000054,-0.0,-10.000000000000044,-10.000000000000044,-30.000000000000135,-30.000000000000135,-40.00000000000018
-20.00000000000009,-120.00000000000054,-50.00000000000022,40.00000000000018,10.000000000000044,-60.00000000000027,30.000000000000135,10.000000000000044,20.00000000000009,-10.000000000000044,-40.00000000000018,-50.00000000000022
-30.000000000000135,-80.00000000000036,-10.000000000000044,30.000000000000135,-10.000000000000044,-20.00000000000009,60.00000000000027,60.00000000000027,80.00000000000036,30.000000000000135,-50.00000000000022,-70.00000000000031
-30.000000000000135,-40.00000000000018,-0.0,10.000000000000044,-10.000000000000044,-0.0,100.00000000000044,120.00000000000054,180.0000000000008,120.00000000000054,-40.00000000000018,-70.00000000000031
-20.00000000000009,-20.00000000000009,-0.0,10.000000000000044,-10.000000000000044,-0.0,130.00000000000057,190.00000000000085,300.0000000000013,260.00000000000114,-0.0,-50.00000000000022
-10.000000000000044,-0.0,-0.0,-0.0,-0.0,-0.0,160.0000000000007,270.0000000000012,450.000000000002,460.00000000000205,90.0000000000004,-0.0
-0.0,-0.0,-0.0,-0.0,-0.0,-0.0,170.00000000000077,350.00000000000153,590.0000000000026,680.0000000000031,240.00000000000108,90.0000000000004
-0.0,-10.000000000000044,-10.000000000000044,-0.0,-0.0,-10.000000000000044,160.0000000000007,420.0000000000019,690.0000000000031,860.0000000000039,440.00000000000193,220.00000000000097
-0.0,-10.000000000000044,-20.00000000000009,10.000000000000044,-0.0,-20.00000000000009,120.00000000000054,440.00000000000193,690.0000000000031,940.0000000000042,650.0000000000028,370.00000000000165
-10.000000000000044,-20.00000000000009,-10.000000000000044,10.000000000000044,-0.0,-20.00000000000009,70.00000000000031,380.0000000000017,540.0000000000024,840.0000000000038,800.0000000000035,500.0000000000022
-20.00000000000009,-30.000000000000135,-10.000000000000044,20.00000000000009,-0.0,-20.00000000000009,10.000000000000044,240.00000000000108,260.00000000000114,580.0000000000026,870.0000000000039,590.0000000000026
-20.00000000000009,-30.000000000000135,-0.0,20.00000000000009,-10.000000000000044,-10.000000000000044,-70.00000000000031,10.000000000000044,-110.00000000000048,200.00000000000088,790.0000000000035,600.0000000000026
-30.000000000000135,-30.000000000000135,-0.0,30.000000000000135,-10.000000000000044,-10.000000000000044,-160.0000000000007,-270.0000000000012,-520.0000000000023,-220.00000000000097,610.0000000000027,540.0000000000024
-30.000000000000135,-30.000000000000135,-0.0,30.000000000000135,-10.000000000000044,-10.000000000000044,-250.0000000000011,-580.0000000000026,-880.0000000000039,-610.0000000000027,350.00000000000153,430.00000000000193
-30.000000000000135,-30.000000000000135,-0.0,20.00000000000009,-10.000000000000044,-10.000000000000044,-340.00000000000153,-850.0000000000038,-1110.000000000005,-880.0000000000039,90.0000000000004,290.0000000000013
-20.00000000000009,-30.000000000000135,-0.0,20.00000000000009,-10.000000000000044,-10.000000000000044,-430.00000000000193,-1060.0000000000048,-1220.0000000000055,-1010.0000000000044,-130.00000000000057,160.0000000000007
-20.00000000000009,-20.00000000000009,-0.0,20.00000000000009,-0.0,-10.000000000000044,-490.00000000000216,-1170.0000000000052,-1190.0000000000052,-1000.0000000000044,-280.00000000000125,50.00000000000022
-10.000000000000044,-20.00000000000009,-0.0,10.000000000000044,-0.0,-10.000000000000044,-530.0000000000024,-1180.0000000000052,-1090.0000000000048,-910.0000000000041,-350.00000000000153,-30.000000000000135
-10.000000000000044,-20.00000000000009,-0.0,10.000000000000044,-0.0,-10.000000000000044,-520.0000000000023,-1110.000000000005,-950.0000000000042,-780.0000000000034,-370.00000000000165,-70.00000000000031
-10.000000000000044,-20.00000000000009,-0.0,20.00000000000009,-0.0,-10.000000000000044,-470.0000000000021,-990.0000000000044,-780.0000000000034,-640.0000000000028,-340.00000000000153,-90.0000000000004
-10.000000000000044,-20.00000000000009,-0.0,20.00000000000009,-0.0,-10.000000000000044,-400.00000000000176,-840.0000000000038,-630.0000000000028,-520.0000000000023,-300.0000000000013,-100.00000000000044
-10.000000000000044,-20.00000000000009,-10.000000000000044,20.00000000000009,-0.0,-20.00000000000009,-320.0000000000014,-680.0000000000031,-490.00000000000216,-410.0000000000018,-250.0000000000011,-90.0000000000004
-10.000000000000044,-30.000000000000135,-10.000000000000044,20.00000000000009,-0.0,-20.00000000000009,-240.00000000000108,-530.0000000000024,-380.0000000000017,-320.0000000000014,-200.00000000000088,-80.00000000000036
-10.000000000000044,-30.000000000000135,-10.000000000000044,20.00000000000009,-0.0,-20.00000000000009,-170.00000000000077,-400.00000000000176,-290.0000000000013,-250.0000000000011,-160.0000000000007,-60.00000000000027
-10.000000000000044,-30.000000000000135,-10.000000000000044,10.000000000000044,-0.0,-20.00000000000009,-120.00000000000054,-310.00000000000136,-230.00000000000102,-190.00000000000085,-120.00000000000054,-50.00000000000022
-10.000000000000044,-20.00000000000009,-10.000000000000044,10.000000000000044,-0.0,-10.000000000000044,-90.0000000000004,-240.00000000000108,-190.00000000000085,-160.0000000000007,-100.00000000000044,-40.00000000000018
-0.0,-20.00000000000009,-0.0,-0.0,-0.0,-10.000000000000044,-70.00000000000031,-200.00000000000088,-170.00000000000077,-140.00000000000063,-90.0000000000004,-30.000000000000135
-0.0,-10.000000000000044,-0.0,-0.0,-0.0,-0.0,-50.00000000000022,-180.0000000000008,-150.00000000000065,-120.00000000000054,-80.00000000000036,-30.000000000000135
-0.0,-10.000000000000044,-0.0,-0.0,-0.0,-0.0,-40.00000000000018,-170.00000000000077,-140.00000000000063,-110.00000000000048,-70.00000000000031,-30.000000000000135
-0.0,-0.0,-0.0,-0.0,-0.0,-0.0,-30.000000000000135,-150.00000000000065,-120.00000000000054,-100.00000000000044,-60.00000000000027,-30.000000000000135
-0.0,-0.0,-0.0,-0.0,-0.0,-0.0,-20.00000000000009,-130.00000000000057,-110.00000000000048,-90.0000000000004,-50.00000000000022,-30.000000000000135
-0.0,-0.0,-0.0,-0.0,-0.0,-0.0,-20.00000000000009,-110.00000000000048,-90.0000000000004,-70.00000000000031,-50.00000000000022,-30.000000000000135
-0.0,-0.0,-0.0,-0.0,-0.0,-0.0,-10.000000000000044,-90.0000000000004,-70.00000000000031,-60.00000000000027,-40.00000000000018,-30.000000000000135
-0.0,-0.0,-0.0,-0.0,-0.0,-0.0,-0.0,-70.00000000000031,-60.00000000000027,-50.00000000000022,-30.000000000000135,-20.00000000000009
-0.0,-0.0,-0.0,-0.0,-0.0,-0.0,-0.0,-60.00000000000027,-50.00000000000022,-40.00000000000018,-30.000000000000135,-20.00000000000009
-0.0,-0.0,-0.0,-0.0,-0.0,-0.0,-0.0,-50.00000000000022,-40.00000000000018,-40.00000000000018,-20.00000000000009,-20.00000000000009
-0.0,-0.0,-0.0,-0.0,-0.0,-0.0,-0.0,-30.000000000000135,-30.000000000000135,-30.000000000000135,-20.00000000000009,-20.00000000000009
-0.0,-0.0,-0.0,-0.0,-0.0,-0.0,-0.0,-30.000000000000135,-30.000000000000135,-30.000000000000135,-20.00000000000009,-20.00000000000009
-0.0,-0.0,-0.0,-0.0,-0.0,-0.0,-0.0,-20.00000000000009,-20.00000000000009,-20.00000000000009,-20.00000000000009,-20.00000000000009
10.000000000000044,-0.0,-0.0,-0.0,-0.0,-0.0,-0.0,-10.000000000000044,-10.000000000000044,-20.00000000000009,-30.000000000000135,-20.00000000000009
10.000000000000044,-0.0,-10.000000000000044,-10.000000000000044,10.000000000000044,-0.0,-0.0,-0.0,-10.000000000000044,-10.000000000000044,-30.000000000000135,-20.00000000000009
20.00000000000009,-0.0,-10.000000000000044,-10.000000000000044,10.000000000000044,-0.0,-0.0,-0.0,-0.0,-10.000000000000044,-30.000000000000135,-20.00000000000009
20.00000000000009,-0.0,-20.00000000000009,-10.000000000000044,20.00000000000009,-0.0,-0.0,-0.0,-0.0,-0.0,-30.000000000000135,-20.00000000000009
20.00000000000009,-0.0,-20.00000000000009,-10.000000000000044,20.00000000000009,-10.000000000000044,10.000000000000044,10.000000000000044,-0.0,-0.0,-20.00000000000009,-10.000000000000044
20.00000000000009,-0.0,-30.000000000000135,-10.000000000000044,20.00000000000009,-10.000000000000044,10.000000000000044,20.00000000000009,10.000000000000044,-0.0,-20.00000000000009,-10.000000000000044
30.000000000000135,-0.0,-30.000000000000135,-10.000000000000044,30.000000000000135,-10.000000000000044,20.00000000000009,30.000000000000135,20.00000000000009,10.000000000000044,-10.000000000000044,-10.000000000000044
40.00000000000018,-0.0,-40.00000000000018,-20.00000000000009,40.00000000000018,-20.00000000000009,20.00000000000009,40.00000000000018,30.000000000000135,20.00000000000009,-10.000000000000044,-10.000000000000044
40.00000000000018,-0.0,-40.00000000000018,-20.00000000000009,40.00000000000018,-10.000000000000044,20.00000000000009,50.00000000000022,30.000000000000135,20.00000000000009,-0.0,-0.0
50.00000000000022,-0.0,-40.00000000000018,-20.00000000000009,40.00000000000018,-10.000000000000044,20.00000000000009,60.00000000000027,40.00000000000018,20.00000000000009,-0.0,-0.0
50.00000000000022,-0.0,-40.00000000000018,-30.000000000000135,40.00000000000018,-10.000000000000044,20.00000000000009,60.00000000000027,50.00000000000022,30.000000000000135,-0.0,-0.0
50.00000000000022,-0.0,-40.00000000000018,-30.000000000000135,50.00000000000022,-10.000000000000044,20.00000000000009,70.00000000000031,50.00000000000022,30.000000000000135,-10.000000000000044,-0.0
60.00000000000027,-0.0,-50.00000000000022,-30.000000000000135,50.00000000000022,-10.000000000000044,20.00000000000009,80.00000000000036,50.00000000000022,40.00000000000018,-10.000000000000044,-0.0
60.00000000000027,10.000000000000044,-50.00000000000022,-40.00000000000018,60.00000000000027,-10.000000000000044,20.00000000000009,90.0000000000004,60.00000000000027,40.00000000000018,-10.000000000000044,-0.0
70.00000000000031,10.000000000000044,-50.00000000000022,-40.00000000000018,60.00000000000027,-10.000000000000044,20.00000000000009,100.00000000000044,60.00000000000027,40.00000000000018,-10.000000000000044,-0.0
80.00000000000036,10.000000000000044,-50.00000000000022,-50.00000000000022,60.00000000000027,-10.000000000000044,20.00000000000009,100.00000000000044,70.00000000000031,50.00000000000022,-10.000000000000044,-0.0
80.00000000000036,20.00000000000009,-60.00000000000027,-50.00000000000022,70.00000000000031,-10.000000000000044,30.000000000000135,110.00000000000048,80.00000000000036,50.00000000000022,-10.000000000000044,-0.0
90.0000000000004,20.00000000000009,-50.00000000000022,-60.00000000000027,70.00000000000031,-10.000000000000044,30.000000000000135,120.00000000000054,80.00000000000036,50.00000000000022,-10.000000000000044,-0.0
100.00000000000044,30.000000000000135,-50.00000000000022,-70.00000000000031,70.00000000000031,-0.0,30.000000000000135,130.00000000000057,90.0000000000004,60.00000000000027,-10.000000000000044,-0.0
100.00000000000044,40.00000000000018,-60.00000000000027,-70.00000000000031,80.00000000000036,-0.0,30.000000000000135,140.00000000000063,100.00000000000044,70.00000000000031,-10.000000000000044,-0.0
110.00000000000048,40.00000000000018,-60.00000000000027,-80.00000000000036,80.00000000000036,-0.0,40.00000000000018,150.00000000000065,110.00000000000048,70.00000000000031,-0.0,-0.0
110.00000000000048,50.00000000000022,-60.00000000000027,-80.00000000000036,90.0000000000004,-0.0,40.00000000000018,160.0000000000007,120.00000000000054,80.00000000000036,-0.0,-0.0
120.00000000000054,50.00000000000022,-70.00000000000031,-80.00000000000036,90.0000000000004,-0.0,50.00000000000022,180.0000000000008,130.00000000000057,90.0000000000004,-0.0,-0.0
120.00000000000054,50.00000000000022,-80.00000000000036,-80.00000000000036,100.00000000000044,-10.000000000000044,50.00000000000022,200.00000000000088,140.00000000000063,100.00000000000044,-0.0,10.000000000000044
120.00000000000054,40.00000000000018,-80.00000000000036,-80.00000000000036,100.00000000000044,-20.00000000000009,60.00000000000027,210.00000000000094,150.00000000000065,100.00000000000044,10.000000000000044,10.000000000000044
130.00000000000057,40.00000000000018,-90.0000000000004,-90.0000000000004,110.00000000000048,-20.00000000000009,60.00000000000027,230.00000000000102,170.00000000000077,100.00000000000044,20.00000000000009,10.000000000000044
130.00000000000057,40.00000000000018,-90.0000000000004,-90.0000000000004,110.00000000000048,-20.00000000000009,60.00000000000027,240.00000000000108,180.0000000000008,110.00000000000048,20.00000000000009,10.000000000000044
130.00000000000057,40.00000000000018,-90.0000000000004,-90.0000000000004,110.00000000000048,-10.000000000000044,70.00000000000031,260.00000000000114,190.00000000000085,120.00000000000054,20.00000000000009,10.000000000000044
140.00000000000063,40.00000000000018,-80.00000000000036,-90.0000000000004,110.00000000000048,-10.000000000000044,70.00000000000031,280.00000000000125,210.00000000000094,130.00000000000057,20.00000000000009,10.000000000000044
140.00000000000063,50.00000000000022,-80.00000000000036,-100.00000000000044,110.00000000000048,-10.000000000000044,80.00000000000036,300.0000000000013,230.00000000000102,140.00000000000063,20.00000000000009,10.000000000000044
140.00000000000063,50.00000000000022,-80.00000000000036,-100.00000000000044,100.00000000000044,-0.0,80.00000000000036,330.0000000000015,250.0000000000011,160.0000000000007,30.000000000000135,10.000000000000044
140.00000000000063,60.00000000000027,-70.00000000000031,-100.00000000000044,100.00000000000044,-0.0,90.0000000000004,350.00000000000153,270.0000000000012,170.00000000000077,40.00000000000018,20.00000000000009
130.00000000000057,60.00000000000027,-70.00000000000031,-100.00000000000044,100.00000000000044,-0.0,100.00000000000044,380.0000000000017,290.0000000000013,190.00000000000085,40.00000000000018,20.00000000000009
130.00000000000057,60.00000000000027,-70.00000000000031,-100.00000000000044,100.00000000000044,-0.0,100.00000000000044,400.00000000000176,310.00000000000136,200.00000000000088,50.00000000000022,30.000000000000135
120.00000000000054,60.00000000000027,-60.00000000000027,-90.0000000000004,90.0000000000004,-0.0,110.00000000000048,430.00000000000193,340.00000000000153,210.00000000000094,60.00000000000027,40.00000000000018
110.00000000000048,60.00000000000027,-60.00000000000027,-90.0000000000004,90.0000000000004,-0.0,110.00000000000048,460.00000000000205,360.0000000000016,230.00000000000102,60.00000000000027,40.00000000000018
100.00000000000044,50.00000000000022,-50.00000000000022,-80.00000000000036,70.00000000000031,-0.0,120.00000000000054,490.00000000000216,370.00000000000165,240.00000000000108,70.00000000000031,50.00000000000022
100.00000000000044,50.00000000000022,-40.00000000000018,-80.00000000000036,70.00000000000031,-0.0,130.00000000000057,510.0000000000023,390.0000000000017,250.0000000000011,70.00000000000031,50.00000000000022
90.0000000000004,60.00000000000027,-30.000000000000135,-70.00000000000031,60.00000000000027,10.000000000000044,130.00000000000057,530.0000000000024,410.0000000000018,260.00000000000114,80.00000000000036,60.00000000000027
80.00000000000036,60.00000000000027,-20.00000000000009,-70.00000000000031,50.00000000000022,10.000000000000044,140.00000000000063,550.0000000000024,430.00000000000193,270.0000000000012,80.00000000000036,60.00000000000027
80.00000000000036,60.00000000000027,-20.00000000000009,-70.00000000000031,50.00000000000022,10.000000000000044,140.00000000000063,570.0000000000025,440.00000000000193,280.00000000000125,90.0000000000004,70.00000000000031
70.00000000000031,50.00000000000022,-10.000000000000044,-60.00000000000027,40.00000000000018,10.000000000000044,150.00000000000065,590.0000000000026,450.000000000002,290.0000000000013,100.00000000000044,70.00000000000031
70.00000000000031,50.00000000000022,-10.000000000000044,-60.00000000000027,40.00000000000018,10.000000000000044,160.0000000000007,610.0000000000027,460.00000000000205,290.0000000000013,100.00000000000044,80.00000000000036
60.00000000000027,50.00000000000022,-10.000000000000044,-50.00000000000022,40.00000000000018,10.000000000000044,160.0000000000007,630.0000000000028,470.0000000000021,300.0000000000013,110.00000000000048,80.00000000000036
50.00000000000022,40.00000000000018,-10.000000000000044,-50.00000000000022,30.000000000000135,10.000000000000044,170.00000000000077,640.0000000000028,470.0000000000021,290.0000000000013,110.00000000000048,90.0000000000004
40.00000000000018,40.00000000000018,-10.000000000000044,-40.00000000000018,20.00000000000009,-0.0,170.00000000000077,650.0000000000028,470.0000000000021,290.0000000000013,110.00000000000048,90.0000000000004
30.000000000000135,30.000000000000135,-10.000000000000044,-30.000000000000135,20.00000000000009,-0.0,180.0000000000008,650.0000000000028,460.00000000000205,280.00000000000125,110.00000000000048,90.0000000000004
20.00000000000009,20.00000000000009,-10.000000000000044,-20.00000000000009,20.00000000000009,-0.0,180.0000000000008,640.0000000000028,440.00000000000193,270.0000000000012,110.00000000000048,90.0000000000004
20.00000000000009,10.000000000000044,-10.000000000000044,-10.000000000000044,10.000000000000044,-0.0,170.00000000000077,630.0000000000028,430.00000000000193,260.00000000000114,110.00000000000048,80.00000000000036
10.000000000000044,-0.0,-10.000000000000044,-0.0,10.000000000000044,-0.0,170.00000000000077,610.0000000000027,410.0000000000018,240.00000000000108,110.00000000000048,80.00000000000036
10.000000000000044,-0.0,-20.00000000000009,-0.0,10.000000000000044,-10.000000000000044,160.0000000000007,590.0000000000026,380.0000000000017,230.00000000000102,100.00000000000044,80.00000000000036
-0.0,-0.0,-20.00000000000009,-0.0,10.000000000000044,-10.000000000000044,160.0000000000007,550.0000000000024,350.00000000000153,210.00000000000094,100.00000000000044,90.0000000000004
-0.0,-10.000000000000044,-20.00000000000009,-0.0,10.000000000000044,-10.000000000000044,140.00000000000063,510.0000000000023,320.0000000000014,190.00000000000085,100.00000000000044,90.0000000000004
-0.0,-10.000000000000044,-20.00000000000009,-0.0,10.000000000000044,-10.000000000000044,130.00000000000057,470.0000000000021,290.0000000000013,180.0000000000008,100.00000000000044,90.0000000000004
-0.0,-10.000000000000044,-20.00000000000009,-0.0,-0.0,-20.00000000000009,120.00000000000054,420.0000000000019,260.00000000000114,160.0000000000007,90.0000000000004,90.0000000000004
-0.0,-20.00000000000009,-20.00000000000009,-0.0,-0.0,-20.00000000000009,110.00000000000048,380.0000000000017,230.00000000000102,140.00000000000063,90.0000000000004,90.0000000000004
-0.0,-20.00000000000009,-20.00000000000009,10.000000000000044,10.000000000000044,-20.00000000000009,100.00000000000044,340.00000000000153,200.00000000000088,130.00000000000057,90.0000000000004,90.0000000000004
-0.0,-20.00000000000009,-20.00000000000009,10.000000000000044,10.000000000000044,-20.00000000000009,80.00000000000036,300.0000000000013,180.0000000000008,120.00000000000054,80.00000000000036,80.00000000000036
-0.0,-20.00000000000009,-20.00000000000009,10.000000000000044,10.000000000000044,-20.00000000000009,70.00000000000031,260.00000000000114,150.00000000000065,100.00000000000044,80.00000000000036,80.00000000000036
-0.0,-20.00000000000009,-20.00000000000009,-0.0,-0.0,-20.00000000000009,60.00000000000027,230.00000000000102,130.00000000000057,100.00000000000044,70.00000000000031,70.00000000000031
-0.0,-20.00000000000009,-20.00000000000009,-0.0,-0.0,-20.00000000000009,40.00000000000018,200.00000000000088,110.00000000000048,90.0000000000004,60.00000000000027,60.00000000000027
-0.0,-20.00000000000009,-10.000000000000044,-0.0,-0.0,-10.000000000000044,30.000000000000135,170.00000000000077,100.00000000000044,80.00000000000036,60.00000000000027,50.00000000000022
-0.0,-10.000000000000044,-10.000000000000044,-0.0,-0.0,-10.000000000000044,20.00000000000009,150.00000000000065,80.00000000000036,70.00000000000031,50.00000000000022,50.00000000000022
-0.0,-10.000000000000044,-10.000000000000044,-0.0,-0.0,-10.000000000000044,10.000000000000044,130.00000000000057,70.00000000000031,70.00000000000031,50.00000000000022,40.00000000000018
-0.0,-10.000000000000044,-10.000000000000044,-0.0,-0.0,-0.0,10.000000000000044,110.00000000000048,60.00000000000027,60.00000000000027,40.00000000000018,30.000000000000135
-0.0,-0.0,-10.000000000000044,-0.0,-0.0,-0.0,-0.0,100.00000000000044,50.00000000000022,50.00000000000022,40.00000000000018,30.000000000000135
-0.0,-0.0,-0.0,-0.0,-0.0,-0.0,-0.0,90.0000000000004,40.00000000000018,40.00000000000018,30.000000000000135,20.00000000000009
-0.0,-0.0,-10.000000000000044,-0.0,-0.0,-10.000000000000044,-0.0,80.00000000000036,30.000000000000135,40.00000000000018,30.000000000000135,20.00000000000009
-0.0,-10.000000000000044,-10.000000000000044,-0.0,-0.0,-0.0,-0.0,80.00000000000036,20.00000000000009,30.000000000000135,20.00000000000009,10.000000000000044
-0.0,-0.0,-10.000000000000044,-0.0,-0.0,-0.0,-0.0,70.00000000000031,20.00000000000009,20.00000000000009,10.000000000000044,10.000000000000044
-0.0,-0.0,-0.0,-0.0,-0.0,-0.0,10.000000000000044,70.00000000000031,10.000000000000044,20.00000000000009,10.000000000000044,-0.0
-0.0,-0.0,-0.0,-0.0,-0.0,-0.0,10.000000000000044,60.00000000000027,10.000000000000044,10.000000000000044,10.000000000000044,-0.0
10.000000000000044,-0.0,-0.0,-10.000000000000044,-0.0,-0.0,10.000000000000044,60.00000000000027,10.000000000000044,10.000000000000044,-0.0,-0.0
10.000000000000044,-0.0,-0.0,-10.000000000000044,10.000000000000044,-0.0,10.000000000000044,60.00000000000027,10.000000000000044,10.000000000000044,-0.0,-0.0
10.000000000000044,10.000000000000044,-0.0,-10.000000000000044,-0.0,-0.0,10.000000000000044,50.00000000000022,10.000000000000044,10.000000000000044,-0.0,-0.0
20.00000000000009,10.000000000000044,-0.0,-10.000000000000044,10.000000000000044,-0.0,10.000000000000044,50.00000000000022,10.000000000000044,10.000000000000044,-0.0,-0.0
20.00000000000009,10.000000000000044,-0.0,-10.000000000000044,10.000000000000044,-0.0,10.000000000000044,50.00000000000022,10.000000000000044,-0.0,-0.0,-0.0
20.00000000000009,10.000000000000044,-0.0,-10.000000000000044,10.000000000000044,-0.0,10.000000000000044,50.00000000000022,10.000000000000044,-0.0,-0.0,-0.0
20.00000000000009,10.000000000000044,-0.0,-10.000000000000044,10.000000000000044,-0.0,20.00000000000009,50.00000000000022,20.00000000000009,-0.0,-0.0,-0.0
10.000000000000044,10.000000000000044,-0.0,-10.000000000000044,-0.0,-0.0,20.00000000000009,50.00000000000022,20.00000000000009,-0.0,-0.0,-0.0
10.000000000000044,10.000000000000044,-0.0,-10.000000000000044,-0.0,-0.0,30.000000000000135,50.00000000000022,20.00000000000009,-0.0,-0.0,-0.0
10.000000000000044,10.000000000000044,-0.0,-10.000000000000044,-0.0,10.000000000000044,30.000000000000135,50.00000000000022,30.000000000000135,-0.0,-0.0,-0.0
10.000000000000044,20.00000000000009,-0.0,-10.000000000000044,-0.0,10.000000000000044,30.000000000000135,50.00000000000022,30.000000000000135,-0.0,-0.0,-0.0
10.000000000000044,20.00000000000009,-0.0,-10.000000000000044,-0.0,10.000000000000044,30.000000000000135,50.00000000000022,30.000000000000135,10.000000000000044,-0.0,-0.0
10.000000000000044,20.00000000000009,-0.0,-10.000000000000044,-0.0,10.000000000000044,30.000000000000135,60.00000000000027,30.000000000000135,10.000000000000044,-0.0,-0.0
10.000000000000044,20.00000000000009,-0.0,-10.000000000000044,-0.0,-0.0,30.000000000000135,60.00000000000027,30.000000000000135,10.000000000000044,10.000000000000044,-0.0
20.00000000000009,10.000000000000044,-0.0,-10.000000000000044,10.000000000000044,-0.0,30.000000000000135,60.00000000000027,40.00000000000018,10.000000000000044,10.000000000000044,-0.0
20.00000000000009,10.000000000000044,-0.0,-20.00000000000009,-0.0,-0.0,20.00000000000009,60.00000000000027,40.00000000000018,10.000000000000044,10.000000000000044,-0.0
20.00000000000009,10.000000000000044,-0.0,-20.00000000000009,10.000000000000044,-0.0,20.00000000000009,60.00000000000027,40.00000000000018,10.000000000000044,10.000000000000044,10.000000000000044
20.00000000000009,10.000000000000044,-0.0,-10.000000000000044,10.000000000000044,-0.0,20.00000000000009,60.00000000000027,40.00000000000018,10.000000000000044,10.000000000000044,10.000000000000044
10.000000000000044,10.000000000000044,-0.0,-20.00000000000009,-0.0,-0.0,20.00000000000009,50.00000000000022,40.00000000000018,10.000000000000044,10.000000000000044,10.000000000000044
10.000000000000044,20.00000000000009,-0.0,-10.000000000000044,-0.0,-0.0,10.000000000000044,50.00000000000022,40.00000000000018,20.00000000000009,10.000000000000044,10.000000000000044
10.000000000000044,10.000000000000044,-0.0,-10.000000000000044,-0.0,-0.0,10.000000000000044,60.00000000000027,50.00000000000022,20.00000000000009,10.000000000000044,10.000000000000044
-0.0,10.000000000000044,-0.0,-10.000000000000044,-0.0,-0.0,20.00000000000009,60.00000000000027,50.00000000000022,20.00000000000009,20.00000000000009,10.000000000000044
-0.0,10.000000000000044,-0.0,-0.0,-0.0,-0.0,20.00000000000009,60.00000000000027,50.00000000000022,20.00000000000009,20.00000000000009,10.000000000000044
-0.0,10.000000000000044,-0.0,-0.0,-0.0,-0.0,20.00000000000009,60.00000000000027,50.00000000000022,30.000000000000135,20.00000000000009,10.000000000000044
-0.0,-0.0,-0.0,-0.0,-0.0,-0.0,20.00000000000009,60.00000000000027,50.00000000000022,30.000000000000135,20.00000000000009,10.000000000000044
-0.0,-0.0,-0.0,-0.0,-0.0,-0.0,20.00000000000009,60.00000000000027,50.00000000000022,30.000000000000135,30.000000000000135,10.000000000000044
-0.0,-0.0,-0.0,-0.0,-0.0,-0.0,10.000000000000044,60.00000000000027,50.00000000000022,40.00000000000018,30.000000000000135,10.000000000000044
-0.0,-0.0,-0.0,-0.0,-0.0,-0.0,10.000000000000044,60.00000000000027,50.00000000000022,40.00000000000018,30.000000000000135,20.00000000000009
-0.0,-0.0,-0.0,-0.0,-0.0,-0.0,10.000000000000044,60.00000000000027,50.00000000000022,40.00000000000018,30.000000000000135,20.00000000000009
-0.0,-0.0,-0.0,-0.0,-0.0,-0.0,10.000000000000044,60.00000000000027,50.00000000000022,40.00000000000018,30.000000000000135,20.00000000000009
-0.0,-0.0,-0.0,-0.0,-0.0,-0.0,10.000000000000044,60.00000000000027,50.00000000000022,40.00000000000018,30.000000000000135,20.00000000000009
-0.0,-0.0,-0.0,-0.0,-0.0,-0.0,10.000000000000044,60.00000000000027,50.00000000000022,40.00000000000018,30.000000000000135,20.00000000000009
-0.0,-0.0,-0.0,-0.0,-0.0,-0.0,10.000000000000044,60.00000000000027,50.00000000000022,40.00000000000018,30.000000000000135,20.00000000000009
-0.0,-0.0,-0.0,-0.0,-0.0,-0.0,10.000000000000044,50.00000000000022,50.00000000000022,40.00000000000018,30.000000000000135,20.00000000000009
-0.0,-0.0,-0.0,-0.0,-0.0,-0.0,10.000000000000044,50.00000000000022,50.00000000000022,40.00000000000018,30.000000000000135,20.00000000000009
-0.0,-0.0,-0.0,-0.0,-0.0,-0.0,10.000000000000044,50.00000000000022,50.00000000000022,40.00000000000018,30.000000000000135,20.00000000000009
-0.0,-0.0,-0.0,-0.0,-0.0,-0.0,10.000000000000044,50.00000000000022,50.00000000000022,40.00000000000018,30.000000000000135,20.00000000000009
-0.0,-0.0,-0.0,-0.0,-0.0,-0.0,10.000000000000044,50.00000000000022,40.00000000000018,40.00000000000018,30.000000000000135,20.00000000000009
-0.0,-0.0,-0.0,-0.0,-0.0,-0.0,10.000000000000044,50.00000000000022,40.00000000000018,40.00000000000018,30.000000000000135,20.00000000000009
-0.0,-0.0,-0.0,-0.0,-0.0,-0.0,10.000000000000044,50.00000000000022,40.00000000000018,30.000000000000135,30.000000000000135,20.00000000000009
-0.0,-0.0,-0.0,-0.0,-0.0,-0.0,10.000000000000044,50.00000000000022,30.000000000000135,30.000000000000135,30.000000000000135,20.00000000000009
-0.0,-0.0,-0.0,-0.0,-0.0,-0.0,-0.0,40.00000000000018,30.000000000000135,20.00000000000009,20.00000000000009,20.00000000000009
-0.0,-0.0,-0.0,-0.0,-0.0,-0.0,-0.0,40.00000000000018,20.00000000000009,20.00000000000009,20.00000000000009,20.00000000000009
-0.0,-0.0,-0.0,-0.0,-0.0,-0.0,-0.0,30.000000000000135,20.00000000000009,20.00000000000009,20.00000000000009,20.00000000000009
-0.0,-0.0,-0.0,-0.0,-0.0,-0.0,-0.0,30.000000000000135,20.00000000000009,10.000000000000044,20.00000000000009,10.000000000000044
-0.0,-0.0,-0.0,-0.0,-0.0,-0.0,-0.0,20.00000000000009,20.00000000000009,10.000000000000044,10.000000000000044,10.000000000000044
-0.0,-0.0,-0.0,-0.0,-0.0,-0.0,-0.0,20.00000000000009,10.000000000000044,10.000000000000044,10.000000000000044,10.000000000000044
-0.0,-0.0,-0.0,-0.0,-0.0,-0.0,-0.0,20.00000000000009,10.000000000000044,10.000000000000044,10.000000000000044,-0.0
-0.0,-0.0,-0.0,-0.0,-0.0,-0.0,-0.0,20.00000000000009,10.000000000000044,-0.0,10.000000000000044,-0.0
-0.0,-0.0,-0.0,-0.0,-0.0,-0.0,-0.0,20.00000000000009,10.000000000000044,-0.0,-0.0,-0.0
-0.0,-0.0,-0.0,-0.0,-0.0,-0.0,-0.0,10.000000000000044,10.000000000000044,-0.0,-0.0,-0.0
-0.0,-0.0,-0.0,-0.0,-0.0,-0.0,-0.0,20.00000000000009,10.000000000000044,-0.0,-0.0,-0.0
-0.0,-0.0,-0.0,-0.0,-0.0,-0.0,-0.0,10.000000000000044,-0.0,-0.0,-0.0,-0.0
-0.0,-0.0,-0.0,-0.0,-0.0,-0.0,-0.0,10.000000000000044,-0.0,-0.0,-0.0,-0.0
-0.0,-0.0,-0.0,-0.0,-0.0,-0.0,-0.0,10.000000000000044,-0.0,-0.0,-0.0,-0.0
-0.0,-0.0,-0.0,-0.0,-0.0,-0.0,-0.0,10.000000000000044,-0.0,-0.0,-0.0,-0.0
-0.0,-0.0,-0.0,-0.0,-0.0,-0.0,-0.0,10.000000000000044,-0.0,-0.0,-0.0,-0.0
-0.0,-0.0,-0.0,-0.0,-0.0,-0.0,-0.0,10.000000000000044,-0.0,-0.0,-0.0,-0.0
-0.0,-0.0,-0.0,-0.0,-0.0,-0.0,-0.0,10.000000000000044,-0.0,-0.0,-0.0,-0.0
-0.0,-0.0,-0.0,-0.0,-0.0,-0.0,-0.0,10.000000000000044,-0.0,-0.0,-0.0,-0.0
-0.0,-0.0,-0.0,-0.0,-0.0,-0.0,-0.0,10.000000000000044,-0.0,-0.0,-0.0,-0.0
-0.0,-0.0,-0.0,-0.0,-0.0,-0.0,-0.0,10.000000000000044,-0.0,-0.0,-0.0,-0.0
-0.0,-0.0,-0.0,-0.0,-0.0,-0.0,10.000000000000044,10.000000000000044,-0.0,-0.0,-0.0,-0.0
-0.0,-0.0,-0.0,-0.0,-0.0,-0.0,10.000000000000044,10.000000000000044,-0.0,-0.0,-0.0,-0.0
-0.0,-0.0,-0.0,-0.0,-0.0,-0.0,10.000000000000044,-0.0,-0.0,-0.0,-0.0,-0.0
-0.0,-0.0,-0.0,-0.0,-0.0,-0.0,-0.0,-0.0,-0.0,-0.0,-0.0,-0.0
-0.0,-0.0,-0.0,-0.0,-0.0,-0.0,-0.0,-0.0,-0.0,-0.0,-0.0,-0.0
-0.0,-0.0,-0.0,-0.0,-0.0,-0.0,10.000000000000044,-0.0,-0.0,-0.0,-0.0,-0.0
-0.0,-0.0,-0.0,-0.0,-0.0,-0.0,10.000000000000044,-0.0,-0.0,-0.0,-0.0,-0.0
-0.0,-0.0,-0.0,-0.0,-0.0,-0.0,-0.0,-0.0,-0.0,-0.0,-0.0,-0.0
-0.0,-0.0,-0.0,-0.0,-0.0,-0.0,-0.0,-0.0,-0.0,-0.0,-0.0,-0.0
-0.0,-0.0,-0.0,-0.0,-0.0,-0.0,-0.0,-0.0,-0.0,-0.0,-0.0,-0.0
-0.0,-0.0,-0.0,-0.0,-0.0,-0.0,-0.0,-0.0,-0.0,-0.0,-0.0,-0.0
-0.0,-0.0,-0.0,-0.0,-0.0,-0.0,-0.0,-0.0,-0.0,-0.0,-0.0,-0.0
-0.0,-0.0,-0.0,-0.0,-0.0,-0.0,-0.0,-0.0,-0.0,-0.0,-0.0,-0.0
-0.0,-0.0,-0.0,-0.0,-0.0,-0.0,-0.0,-0.0,-0.0,-0.0,-0.0,-0.0
-0.0,-0.0,-0.0,-0.0,-0.0,-0.0,-0.0,-0.0,-0.0,-0.0,-0.0,-0.0
-0.0,-0.0,-0.0,-0.0,-0.0,-0.0,-0.0,-0.0,-0.0,-0.0,-0.0,-0.0
-0.0,-0.0,-0.0,-0.0,-0.0,-0.0,-0.0,-0.0,-0.0,-0.0,-0.0,-0.0
-0.0,-0.0,-0.0,-0.0,-0.0,-0.0,-0.0,-0.0,-0.0,-0.0,-0.0,-0.0
-0.0,-10.000000000000044,-0.0,-0.0,-0.0,-0.0,-0.0,-0.0,-0.0,-0.0,-0.0,-0.0
-0.0,-10.000000000000044,-0.0,-0.0,-0.0,-0.0,-0.0,-0.0,-0.0,-0.0,-0.0,-0.0
-0.0,-0.0,-0.0,-0.0,-0.0,-0.0,-0.0,-0.0,-0.0,-0.0,-0.0,-0.0
-0.0,-0.0,-0.0,-0.0,-0.0,-0.0,-0.0,-0.0,-0.0,-0.0,-0.0,-0.0
-0.0,-0.0,-0.0,-0.0,-0.0,-0.0,-0.0,-0.0,-0.0,-10.000000000000044,-0.0,-0.0
-0.0,-0.0,-0.0,-0.0,-0.0,-0.0,-0.0,-0.0,-0.0,-10.000000000000044,-0.0,-0.0
-0.0,-0.0,-0.0,-0.0,-0.0,-0.0,-0.0,-0.0,-0.0,-0.0,-0.0,-0.0
-0.0,-0.0,-0.0,-0.0,-0.0,-0.0,-0.0,-0.0,-0.0,-0.0,-0.0,-0.0
-0.0,-0.0,-0.0,-0.0,-0.0,-0.0,-0.0,-0.0,-0.0,-0.0,-0.0,-0.0
-0.0,-10.000000000000044,-10.000000000000044,-0.0,-0.0,-10.000000000000044,-0.0,-0.0,-0.0,-0.0,-0.0,-0.0
-0.0,-10.000000000000044,-10.000000000000044,-0.0,-0.0,-10.000000000000044,-0.0,-0.0,-0.0,-0.0,-0.0,-0.0
-0.0,-10.000000000000044,-10.000000000000044,-0.0,-0.0,-10.000000000000044,-0.0,-0.0,-0.0,-0.0,-0.0,-0.0
-0.0,-10.000000000000044,-10.000000000000044,-0.0,-0.0,-10.000000000000044,-0.0,-0.0,-0.0,-0.0,-0.0,-0.0
-0.0,-10.000000000000044,-10.000000000000044,-0.0,-0.0,-10.000000000000044,-0.0,-0.0,-0.0,-10.000000000000044,-0.0,-0.0
-0.0,-10.000000000000044,-10.000000000000044,-0.0,-0.0,-10.000000000000044,-0.0,-0.0,-10.000000000000044,-10.000000000000044,-0.0,-0.0
-0.0,-10.000000000000044,-10.000000000000044,-0.0,-0.0,-10.000000000000044,-0.0,-0.0,-10.000000000000044,-10.000000000000044,-0.0,-0.0
-0.0,-10.000000000000044,-10.000000000000044,-0.0,-0.0,-10.000000000000044,-0.0,-0.0,-10.000000000000044,-10.000000000000044,-0.0,-0.0
-0.0,-10.000000000000044,-0.0,-0.0,-0.0,-0.0,-0.0,-0.0,-10.000000000000044,-10.000000000000044,-0.0,-0.0
-0.0,-10.000000000000044,-0.0,-0.0,-0.0,-0.0,-0.0,-0.0,-0.0,-10.000000000000044,-0.0,-0.0
-10.000000000000044,-10.000000000000044,-0.0,-0.0,-0.0,-0.0,-0.0,-0.0,-0.0,-10.000000000000044,-0.0,-0.0
-10.000000000000044,-0.0,-0.0,10.000000000000044,-0.0,-0.0,-0.0,-0.0,-0.0,-0.0,-0.0,-0.0
-10.000000000000044,-10.000000000000044,-0.0,10.000000000000044,-0.0,-0.0,-0.0,-0.0,-0.0,-10.000000000000044,-0.0,-0.0
-10.000000000000044,-10.000000000000044,-0.0,10.000000000000044,-0.0,-0.0,-0.0,-0.0,-0.0,-10.000000000000044,-0.0,-0.0
-10.000000000000044,-10.000000000000044,-0.0,10.000000000000044,-0.0,-0.0,-0.0,-0.0,-0.0,-10.000000000000044,-0.0,-0.0
-0.0,-10.000000000000044,-0.0,-0.0,-0.0,-0.0,-0.0,-0.0,-0.0,-10.000000000000044,-0.0,-0.0
-0.0,-10.000000000000044,-0.0,-0.0,-0.0,-0.0,-0.0,-0.0,-0.0,-10.000000000000044,-0.0,-10.000000000000044
-0.0,-0.0,-0.0,-0.0,-0.0,-0.0,-0.0,-0.0,-0.0,-10.000000000000044,-0.0,-10.000000000000044
-0.0,-0.0,-0.0,-0.0,-0.0,-0.0,-0.0,-0.0,-0.0,-10.000000000000044,-0.0,-0.0
-0.0,-0.0,-0.0,-0.0,-0.0,-0.0,-0.0,-0.0,-10.000000000000044,-10.000000000000044,-0.0,-0.0
-0.0,-0.0,-0.0,-0.0,-0.0,-0.0,-0.0,-0.0,-10.000000000000044,-10.000000000000044,-0.0,-0.0
-0.0,-0.0,-10.000000000000044,-0.0,-0.0,-10.000000000000044,-0.0,-0.0,-10.000000000000044,-10.000000000000044,-0.0,-0.0
-0.0,-10.000000000000044,-10.000000000000044,-0.0,-0.0,-10.000000000000044,-0.0,-0.0,-10.000000000000044,-10.000000000000044,-0.0,-0.0
-0.0,-10.000000000000044,-10.000000000000044,-0.0,-0.0,-10.000000000000044,-0.0,-0.0,-10.000000000000044,-10.000000000000044,-0.0,-0.0
-0.0,-10.000000000000044,-10.000000000000044,-0.0,-0.0,-10.000000000000044,-0.0,-0.0,-0.0,-10.000000000000044,-0.0,-0.0
-0.0,-10.000000000000044,-0.0,-0.0,-0.0,-0.0,-0.0,-0.0,-0.0,-10.000000000000044,-0.0,-0.0
-0.0,-0.0,-0.0,-0.0,-0.0,-0.0,-0.0,-0.0,-0.0,-0.0,-0.0,-0.0
-0.0,-0.0,-0.0,-0.0,-0.0,-0.0,-0.0,-0.0,-0.0,-0.0,-0.0,-0.0
-0.0,-0.0,-0.0,-0.0,-0.0,-0.0,-0.0,-0.0,-0.0,-0.0,-0.0,-0.0
-0.0,-0.0,-0.0,-0.0,-0.0,-0.0,-0.0,-0.0,-0.0,-10.000000000000044,-0.0,-0.0
-0.0,-0.0,-0.0,-0.0,-0.0,-0.0,-0.0,-0.0,-0.0,-10.000000000000044,-0.0,-0.0
-0.0,-0.0,-0.0,-0.0,-0.0,-0.0,-0.0,-0.0,-10.000000000000044,-10.000000000000044,-0.0,-0.0
-0.0,-0.0,-0.0,-0.0,-0.0,-0.0,-0.0,-0.0,-10.000000000000044,-10.000000000000044,-0.0,-0.0
-0.0,-0.0,-0.0,-0.0,-0.0,-0.0,-0.0,-0.0,-10.000000000000044,-10.000000000000044,-0.0,-0.0
-0.0,-0.0,-0.0,-0.0,-0.0,-0.0,-0.0,-10.000000000000044,-10.000000000000044,-10.000000000000044,-10.000000000000044,-0.0
-0.0,-0.0,-0.0,-0.0,-0.0,-0.0,-0.0,-10.000000000000044,-10.000000000000044,-10.000000000000044,-10.000000000000044,-10.000000000000044
-0.0,-0.0,-0.0,-0.0,-0.0,-0.0,-0.0,-10.000000000000044,-10.000000000000044,-10.000000000000044,-10.000000000000044,-10.000000000000044
-0.0,-0.0,-0.0,-0.0,-0.0,-0.0,-0.0,-10.000000000000044,-10.000000000000044,-10.000000000000044,-10.000000000000044,-10.000000000000044
-0.0,-0.0,-0.0,-0.0,-0.0,-0.0,-0.0,-10.000000000000044,-10.000000000000044,-10.000000000000044,-0.0,-0.0
-0.0,-0.0,-0.0,-0.0,-0.0,-0.0,-0.0,-0.0,-0.0,-10.000000000000044,-0.0,-0.0
-0.0,-0.0,-0.0,-0.0,-0.0,-0.0,-0.0,-0.0,-0.0,-0.0,-0.0,-0.0
-0.0,-0.0,-0.0,-0.0,-0.0,-0.0,-0.0,-0.0,-0.0,-0.0,-0.0,-0.0
-10.000000000000044,-0.0,-0.0,-0.0,-0.0,-0.0,-0.0,-0.0,-0.0,-0.0,-0.0,-0.0
-10.000000000000044,-0.0,-0.0,-0.0,-10.000000000000044,-0.0,-0.0,-0.0,-0.0,-0.0,-0.0,-0.0
-20.00000000000009,-0.0,10.000000000000044,10.000000000000044,-10.000000000000044,-0.0,-0.0,-0.0,-0.0,-0.0,-0.0,-0.0
-20.00000000000009,-0.0,10.000000000000044,10.000000000000044,-20.00000000000009,-0.0,-0.0,-0.0,-0.0,-0.0,-0.0,-0.0
-20.00000000000009,-0.0,20.00000000000009,10.000000000000044,-20.00000000000009,-0.0,-0.0,-0.0,-0.0,-0.0,-0.0,-0.0
-20.00000000000009,-0.0,20.00000000000009,-0.0,-20.00000000000009,10.000000000000044,-0.0,-0.0,-0.0,-0.0,-0.0,-0.0
-20.00000000000009,-0.0,30.000000000000135,-0.0,-30.000000000000135,20.00000000000009,-0.0,-0.0,-0.0,-10.000000000000044,-0.0,-0.0
-20.00000000000009,-0.0,40.00000000000018,-0.0,-30.000000000000135,20.00000000000009,-0.0,-0.0,-0.0,-10.000000000000044,-0.0,-0.0
-20.00000000000009,10.000000000000044,50.00000000000022,-0.0,-40.00000000000018,30.000000000000135,-0.0,-0.0,-0.0,-10.000000000000044,-0.0,-0.0
-20.00000000000009,20.00000000000009,60.00000000000027,-0.0,-40.00000000000018,40.00000000000018,-0.0,-0.0,-0.0,-10.000000000000044,-0.0,-0.0
-20.00000000000009,30.000000000000135,70.00000000000031,-10.000000000000044,-40.00000000000018,50.00000000000022,-0.0,-0.0,-0.0,-10.000000000000044,-0.0,-0.0
-10.000000000000044,40.00000000000018,70.00000000000031,-10.000000000000044,-40.00000000000018,60.00000000000027,-0.0,-0.0,-0.0,-10.000000000000044,-0.0,-0.0
-10.000000000000044,50.00000000000022,70.00000000000031,-20.00000000000009,-40.00000000000018,60.00000000000027,-0.0,-0.0,-0.0,-10.000000000000044,-0.0,-0.0
-0.0,50.00000000000022,60.00000000000027,-20.00000000000009,-30.000000000000135,60.00000000000027,-0.0,-0.0,-0.0,-10.000000000000044,-0.0,-0.0
-0.0,60.00000000000027,50.00000000000022,-30.000000000000135,-20.00000000000009,50.00000000000022,-0.0,-0.0,-0.0,-10.000000000000044,-0.0,-0.0
10.000000000000044,60.00000000000027,40.00000000000018,-30.000000000000135,-10.000000000000044,50.00000000000022,-0.0,-0.0,-0.0,-10.000000000000044,-0.0,-0.0
10.000000000000044,60.00000000000027,30.000000000000135,-40.00000000000018,-10.000000000000044,50.00000000000022,-0.0,-0.0,-0.0,-10.000000000000044,-0.0,-10.000000000000044
20.00000000000009,60.00000000000027,30.000000000000135,-40.00000000000018,-0.0,40.00000000000018,-0.0,-0.0,-0.0,-10.000000000000044,-0.0,-10.000000000000044
20.00000000000009,50.00000000000022,20.00000000000009,-40.00000000000018,-0.0,30.000000000000135,-0.0,-0.0,-0.0,-0.0,-0.0,-10.000000000000044
30.000000000000135,50.00000000000022,10.000000000000044,-40.00000000000018,-0.0,20.00000000000009,-0.0,-0.0,-0.0,-0.0,-0.0,-10.000000000000044
30.000000000000135,40.00000000000018,-0.0,-30.000000000000135,10.000000000000044,10.000000000000044,-0.0,-0.0,-0.0,-0.0,-0.0,-0.0
20.00000000000009,30.000000000000135,-10.000000000000044,-20.00000000000009,10.000000000000044,-0.0,-0.0,-0.0,-0.0,-0.0,-0.0,-0.0
20.00000000000009,10.000000000000044,-20.00000000000009,-10.000000000000044,20.00000000000009,-10.000000000000044,-10.000000000000044,-0.0,-0.0,-0.0,-0.0,-0.0
20.00000000000009,-0.0,-40.00000000000018,-0.0,30.000000000000135,-20.00000000000009,-10.000000000000044,-0.0,-0.0,-0.0,-0.0,-0.0
20.00000000000009,-10.000000000000044,-40.00000000000018,-0.0,30.000000000000135,-30.000000000000135,-0.0,-0.0,-0.0,-0.0,-0.0,-0.0
10.000000000000044,-20.00000000000009,-50.00000000000022,-0.0,30.000000000000135,-40.00000000000018,-0.0,-0.0,-0.0,-0.0,-0.0,-0.0
10.000000000000044,-30.000000000000135,-50.00000000000022,-0.0,30.000000000000135,-40.00000000000018,-0.0,-0.0,-0.0,-0.0,-0.0,-0.0
-0.0,-40.00000000000018,-50.00000000000022,10.000000000000044,20.00000000000009,-40.00000000000018,-0.0,-0.0,-0.0,-0.0,-0.0,-0.0
-10.000000000000044,-40.00000000000018,-40.00000000000018,20.00000000000009,10.000000000000044,-40.00000000000018,-0.0,-0.0,-0.0,-0.0,-0.0,-10.000000000000044
-20.00000000000009,-50.00000000000022,-30.000000000000135,30.000000000000135,-0.0,-40.00000000000018,-0.0,-0.0,-0.0,-0.0,-0.0,-10.000000000000044
-40.00000000000018,-50.00000000000022,-20.00000000000009,40.00000000000018,-0.0,-40.00000000000018,-0.0,-0.0,-0.0,-0.0,-0.0,-10.000000000000044
-40.00000000000018,-60.00000000000027,-10.000000000000044,50.00000000000022,-10.000000000000044,-30.000000000000135,-10.000000000000044,-0.0,-0.0,-0.0,-0.0,-10.000000000000044
-40.00000000000018,-50.00000000000022,-10.000000000000044,40.00000000000018,-10.000000000000044,-30.000000000000135,-10.000000000000044,-0.0,-0.0,-0.0,-0.0,-10.000000000000044
-40.00000000000018,-50.00000000000022,-10.000000000000044,40.00000000000018,-10.000000000000044,-30.000000000000135,-10.000000000000044,-0.0,-0.0,-0.0,-0.0,-10.000000000000044
-30.000000000000135,-50.00000000000022,-20.00000000000009,40.00000000000018,-0.0,-40.00000000000018,-10.000000000000044,-0.0,-0.0,-0.0,-0.0,-0.0
-30.000000000000135,-50.00000000000022,-30.000000000000135,40.00000000000018,-0.0,-40.00000000000018,-10.000000000000044,-0.0,-0.0,-0.0,-0.0,-0.0
-30.000000000000135,-60.00000000000027,-30.000000000000135,40.00000000000018,-0.0,-40.00000000000018,-0.0,-0.0,-0.0,-0.0,-0.0,-0.0
-30.000000000000135,-60.00000000000027,-30.000000000000135,40.00000000000018,-0.0,-40.00000000000018,-0.0,-0.0,-0.0,-0.0,-0.0,-0.0
-30.000000000000135,-60.00000000000027,-20.00000000000009,50.00000000000022,-0.0,-40.00000000000018,-0.0,-0.0,-0.0,-0.0,-0.0,-0.0
-40.00000000000018,-60.00000000000027,-10.000000000000044,50.00000000000022,-10.000000000000044,-40.00000000000018,-0.0,-0.0,-0.0,-0.0,-0.0,-0.0
-50.00000000000022,-60.00000000000027,-0.0,50.00000000000022,-20.00000000000009,-30.000000000000135,-0.0,-0.0,10.000000000000044,-0.0,-0.0,-0.0
-60.00000000000027,-60.00000000000027,-0.0,50.00000000000022,-30.000000000000135,-20.00000000000009,-0.0,-0.0,10.000000000000044,-0.0,-0.0,-0.0
-70.00000000000031,-50.00000000000022,10.000000000000044,50.00000000000022,-40.00000000000018,-10.000000000000044,-0.0,10.000000000000044,10.000000000000044,-0.0,10.000000000000044,-0.0
-70.00000000000031,-50.00000000000022,20.00000000000009,40.00000000000018,-40.00000000000018,-0.0,-0.0,10.000000000000044,20.00000000000009,10.000000000000044,10.000000000000044,-0.0
-40.00000000000018,-30.000000000000135,40.00000000000018,20.00000000000009,-40.00000000000018,10.000000000000044,-0.0,20.00000000000009,20.00000000000009,20.00000000000009,10.000000000000044,-0.0
-10.000000000000044,-0.0,40.00000000000018,-20.00000000000009,-20.00000000000009,40.00000000000018,-0.0,20.00000000000009,30.000000000000135,20.00000000000009,10.000000000000044,10.000000000000044
50.00000000000022,40.00000000000018,50.00000000000022,-90.0000000000004,-0.0,80.00000000000036,-0.0,30.000000000000135,40.00000000000018,30.000000000000135,20.00000000000009,10.000000000000044
140.00000000000063,110.00000000000048,40.00000000000018,-170.00000000000077,40.00000000000018,110.00000000000048,10.000000000000044,40.00000000000018,50.00000000000022,40.00000000000018,20.00000000000009,10.000000000000044
220.00000000000097,180.0000000000008,20.00000000000009,-240.00000000000108,90.0000000000004,130.00000000000057,20.00000000000009,50.00000000000022,60.00000000000027,50.00000000000022,30.000000000000135,20.00000000000009
300.0000000000013,240.00000000000108,-30.000000000000135,-290.0000000000013,160.0000000000007,120.00000000000054,30.000000000000135,60.00000000000027,70.00000000000031,50.00000000000022,40.00000000000018,30.000000000000135
350.00000000000153,270.0000000000012,-100.00000000000044,-300.0000000000013,220.00000000000097,70.00000000000031,20.00000000000009,60.00000000000027,70.00000000000031,50.00000000000022,40.00000000000018,30.000000000000135
350.00000000000153,240.00000000000108,-180.0000000000008,-260.00000000000114,260.00000000000114,-10.000000000000044,10.000000000000044,60.00000000000027,60.00000000000027,50.00000000000022,50.00000000000022,40.00000000000018
320.0000000000014,160.0000000000007,-270.0000000000012,-190.00000000000085,290.0000000000013,-100.00000000000044,-0.0,50.00000000000022,50.00000000000022,40.00000000000018,50.00000000000022,40.00000000000018
270.0000000000012,50.00000000000022,-340.00000000000153,-100.00000000000044,310.00000000000136,-200.00000000000088,-10.000000000000044,40.00000000000018,40.00000000000018,40.00000000000018,50.00000000000022,40.00000000000018
210.00000000000094,-60.00000000000027,-380.0000000000017,-20.00000000000009,290.0000000000013,-260.00000000000114,-30.000000000000135,30.000000000000135,30.000000000000135,30.000000000000135,50.00000000000022,40.00000000000018
140.00000000000063,-160.0000000000007,-360.0000000000016,40.00000000000018,250.0000000000011,-290.0000000000013,-40.00000000000018,30.000000000000135,30.000000000000135,30.000000000000135,40.00000000000018,30.000000000000135
70.00000000000031,-220.00000000000097,-320.0000000000014,70.00000000000031,190.00000000000085,-280.00000000000125,-40.00000000000018,20.00000000000009,30.000000000000135,20.00000000000009,40.00000000000018,30.000000000000135
20.00000000000009,-240.00000000000108,-250.0000000000011,90.0000000000004,130.00000000000057,-230.00000000000102,-40.00000000000018,20.00000000000009,20.00000000000009,20.00000000000009,40.00000000000018,30.000000000000135
-10.000000000000044,-210.00000000000094,-170.00000000000077,90.0000000000004,70.00000000000031,-170.00000000000077,-40.00000000000018,20.00000000000009,20.00000000000009,20.00000000000009,40.00000000000018,20.00000000000009
-40.00000000000018,-180.0000000000008,-100.00000000000044,80.00000000000036,20.00000000000009,-110.00000000000048,-40.00000000000018,10.000000000000044,10.000000000000044,10.000000000000044,30.000000000000135,20.00000000000009
-60.00000000000027,-130.00000000000057,-40.00000000000018,70.00000000000031,-10.000000000000044,-70.00000000000031,-40.00000000000018,-0.0,-0.0,-0.0,30.000000000000135,10.000000000000044
-60.00000000000027,-90.0000000000004,-0.0,60.00000000000027,-30.000000000000135,-30.000000000000135,-40.00000000000018,-0.0,-10.000000000000044,-10.000000000000044,20.00000000000009,10.000000000000044
-60.00000000000027,-60.00000000000027,10.000000000000044,40.00000000000018,-30.000000000000135,-10.000000000000044,-40.00000000000018,-0.0,-10.000000000000044,-20.00000000000009,-0.0,-0.0
-50.00000000000022,-40.00000000000018,10.000000000000044,30.000000000000135,-30.000000000000135,-0.0,-30.000000000000135,-10.000000000000044,-20.00000000000009,-30.000000000000135,-0.0,-0.0
-40.00000000000018,-30.000000000000135,-0.0,30.000000000000135,-20.00000000000009,-0.0,-30.000000000000135,-10.000000000000044,-30.000000000000135,-30.000000000000135,-0.0,-20.00000000000009
-30.000000000000135,-20.00000000000009,-0.0,30.000000000000135,-10.000000000000044,-10.000000000000044,-30.000000000000135,-20.00000000000009,-20.00000000000009,-30.000000000000135,-10.000000000000044,-20.00000000000009
-20.00000000000009,-30.000000000000135,-0.0,30.000000000000135,-10.000000000000044,-20.00000000000009,-30.000000000000135,-20.00000000000009,-20.00000000000009,-30.000000000000135,-10.000000000000044,-20.00000000000009
-20.00000000000009,-30.000000000000135,-10.000000000000044,30.000000000000135,-0.0,-20.00000000000009,-20.00000000000009,-10.000000000000044,-20.00000000000009,-30.000000000000135,-10.000000000000044,-30.000000000000135
-20.00000000000009,-40.00000000000018,-10.000000000000044,30.000000000000135,-0.0,-20.00000000000009,-30.000000000000135,-10.000000000000044,-20.00000000000009,-20.00000000000009,-10.000000000000044,-30.000000000000135
-30.000000000000135,-40.00000000000018,-0.0,30.000000000000135,-10.000000000000044,-20.00000000000009,-30.000000000000135,-10.000000000000044,-20.00000000000009,-20.00000000000009,-10.000000000000044,-20.00000000000009
-30.000000000000135,-40.00000000000018,-0.0,30.000000000000135,-10.000000000000044,-20.00000000000009,-30.000000000000135,-10.000000000000044,-30.000000000000135,-20.00000000000009,-0.0,-20.00000000000009
-30.000000000000135,-40.00000000000018,-0.0,30.000000000000135,-10.000000000000044,-20.00000000000009,-40.00000000000018,-20.00000000000009,-20.00000000000009,-20.00000000000009,-0.0,-20.00000000000009
-30.000000000000135,-40.00000000000018,-10.000000000000044,40.00000000000018,-10.000000000000044,-30.000000000000135,-40.00000000000018,-20.00000000000009,-20.00000000000009,-20.00000000000009,-0.0,-20.00000000000009
-30.000000000000135,-50.00000000000022,-10.000000000000044,40.00000000000018,-0.0,-30.000000000000135,-30.000000000000135,-10.000000000000044,-10.000000000000044,-10.000000000000044,-0.0,-20.00000000000009
-30.000000000000135,-50.00000000000022,-20.00000000000009,40.00000000000018,-0.0,-40.00000000000018,-20.00000000000009,-0.0,-0.0,-10.000000000000044,-10.000000000000044,-30.000000000000135
-30.000000000000135,-50.00000000000022,-30.000000000000135,40.00000000000018,-0.0,-40.00000000000018,-10.000000000000044,20.00000000000009,30.000000000000135,-0.0,-20.00000000000009,-40.00000000000018
-30.000000000000135,-60.00000000000027,-30.000000000000135,40.00000000000018,-0.0,-40.00000000000018,20.00000000000009,70.00000000000031,90.0000000000004,40.00000000000018,-30.000000000000135,-50.00000000000022
-20.00000000000009,-60.00000000000027,-30.000000000000135,40.00000000000018,-0.0,-50.00000000000022,60.00000000000027,120.00000000000054,170.00000000000077,110.00000000000048,-30.000000000000135,-60.00000000000027
-30.000000000000135,-60.00000000000027,-30.000000000000135,40.00000000000018,-0.0,-40.00000000000018,100.00000000000044,190.00000000000085,290.0000000000013,240.00000000000108,10.000000000000044,-40.00000000000018
-30.000000000000135,-60.00000000000027,-30.000000000000135,40.00000000000018,-0.0,-40.00000000000018,130.00000000000057,270.0000000000012,430.00000000000193,430.00000000000193,80.00000000000036,-0.0
-30.000000000000135,-60.00000000000027,-20.00000000000009,40.00000000000018,-0.0,-40.00000000000018,150.00000000000065,350.00000000000153,590.0000000000026,660.000000000003,220.00000000000097,70.00000000000031
-30.000000000000135,-60.00000000000027,-20.00000000000009,40.00000000000018,-0.0,-40.00000000000018,140.00000000000063,420.0000000000019,710.0000000000032,860.0000000000039,410.0000000000018,190.00000000000085
-30.000000000000135,-60.00000000000027,-20.00000000000009,40.00000000000018,-0.0,-40.00000000000018,110.00000000000048,440.00000000000193,740.0000000000033,990.0000000000044,620.0000000000027,340.00000000000153
-30.000000000000135,-50.00000000000022,-20.00000000000009,40.00000000000018,-0.0,-40.00000000000018,60.00000000000027,390.0000000000017,620.0000000000027,950.0000000000042,810.0000000000036,480.00000000000216
-30.000000000000135,-50.00000000000022,-20.00000000000009,40.00000000000018,-0.0,-40.00000000000018,-0.0,260.00000000000114,350.00000000000153,740.0000000000033,910.0000000000041,580.0000000000026
-20.00000000000009,-50.00000000000022,-30.000000000000135,40.00000000000018,-0.0,-40.00000000000018,-80.00000000000036,40.00000000000018,-20.00000000000009,370.00000000000165,890.000000000004,630.0000000000028
-20.00000000000009,-60.00000000000027,-30.000000000000135,40.00000000000018,-0.0,-40.00000000000018,-180.0000000000008,-250.0000000000011,-440.00000000000193,-70.00000000000031,740.0000000000033,590.0000000000026
-30.000000000000135,-60.00000000000027,-30.000000000000135,40.00000000000018,-0.0,-40.00000000000018,-290.0000000000013,-570.0000000000025,-830.0000000000036,-490.00000000000216,510.0000000000023,490.00000000000216
-30.000000000000135,-60.00000000000027,-20.00000000000009,40.00000000000018,-0.0,-40.00000000000018,-400.00000000000176,-880.0000000000039,-1120.000000000005,-820.0000000000036,240.00000000000108,350.00000000000153
-30.000000000000135,-60.00000000000027,-20.00000000000009,40.00000000000018,-0.0,-40.00000000000018,-500.0000000000022,-1100.0000000000048,-1260.0000000000057,-1000.0000000000044,-0.0,210.00000000000094
-30.000000000000135,-50.00000000000022,-20.00000000000009,40.00000000000018,-0.0,-30.000000000000135,-570.0000000000025,-1220.0000000000055,-1250.0000000000055,-1030.0000000000045,-180.0000000000008,90.0000000000004
