I,II,III,aVR,aVL,aVF,V1,V2,V3,V4,V5,V6
420.0000000000019,-290.0000000000013,-720.0000000000032,-60.00000000000027,570.0000000000025,-540.0000000000024,130.00000000000057,-0.0,280.00000000000125,910.0000000000041,1180.0000000000052,440.00000000000193
330.0000000000015,-300.0000000000013,-620.0000000000027,-20.00000000000009,470.0000000000021,-480.00000000000216,130.00000000000057,120.00000000000054,280.00000000000125,910.0000000000041,1100.0000000000048,980.0000000000043
260.00000000000114,-280.00000000000125,-520.0000000000023,-0.0,390.0000000000017,-410.0000000000018,130.00000000000057,120.00000000000054,280.00000000000125,910.0000000000041,1090.0000000000048,980.0000000000043
210.00000000000094,-250.0000000000011,-430.00000000000193,-0.0,320.0000000000014,-350.00000000000153,130.00000000000057,130.00000000000057,280.00000000000125,910.0000000000041,1090.0000000000048,980.0000000000043
180.0000000000008,-220.00000000000097,-360.0000000000016,-10.000000000000044,270.0000000000012,-290.0000000000013,120.00000000000054,130.00000000000057,280.00000000000125,900.000000000004,1090.0000000000048,980.0000000000043
180.0000000000008,-170.00000000000077,-310.00000000000136,-30.000000000000135,240.00000000000108,-240.00000000000108,120.00000000000054,140.00000000000063,280.00000000000125,900.000000000004,1090.0000000000048,980.0000000000043
190.00000000000085,-130.00000000000057,-270.0000000000012,-50.00000000000022,230.00000000000102,-200.00000000000088,120.00000000000054,140.00000000000063,280.00000000000125,900.000000000004,1090.0000000000048,980.0000000000043
190.00000000000085,-90.0000000000004,-250.0000000000011,-70.00000000000031,220.00000000000097,-180.0000000000008,110.00000000000048,140.00000000000063,270.0000000000012,900.000000000004,1090.0000000000048,980.0000000000043
200.00000000000088,-60.00000000000027,-230.00000000000102,-80.00000000000036,210.00000000000094,-160.0000000000007,110.00000000000048,150.00000000000065,280.00000000000125,900.000000000004,1090.0000000000048,980.0000000000043
200.00000000000088,-40.00000000000018,-210.00000000000094,-90.0000000000004,200.00000000000088,-140.00000000000063,110.00000000000048,150.00000000000065,270.0000000000012,900.000000000004,1090.0000000000048,980.0000000000043
200.00000000000088,-20.00000000000009,-200.00000000000088,-100.00000000000044,190.00000000000085,-120.00000000000054,110.00000000000048,150.00000000000065,270.0000000000012,900.000000000004,1090.0000000000048,980.0000000000043
200.00000000000088,-0.0,-190.00000000000085,-100.00000000000044,190.00000000000085,-120.00000000000054,100.00000000000044,150.00000000000065,270.0000000000012,900.000000000004,1090.0000000000048,980.0000000000043
200.00000000000088,-0.0,-190.00000000000085,-110.00000000000048,190.00000000000085,-110.00000000000048,100.00000000000044,160.0000000000007,270.0000000000012,900.000000000004,1090.0000000000048,990.0000000000044
210.00000000000094,10.000000000000044,-190.00000000000085,-110.00000000000048,200.00000000000088,-110.00000000000048,90.0000000000004,160.0000000000007,270.0000000000012,900.000000000004,1090.0000000000048,990.0000000000044
210.00000000000094,20.00000000000009,-180.0000000000008,-110.00000000000048,190.00000000000085,-110.00000000000048,90.0000000000004,150.00000000000065,270.0000000000012,900.000000000004,1100.0000000000048,1000.0000000000044
210.00000000000094,20.00000000000009,-180.0000000000008,-110.00000000000048,190.00000000000085,-100.00000000000044,90.0000000000004,150.00000000000065,270.0000000000012,900.000000000004,1100.0000000000048,1000.0000000000044
210.00000000000094,20.00000000000009,-180.0000000000008,-120.00000000000054,190.00000000000085,-100.00000000000044,80.00000000000036,140.00000000000063,280.00000000000125,910.0000000000041,1100.0000000000048,1000.0000000000044
210.00000000000094,30.000000000000135,-180.0000000000008,-120.00000000000054,190.00000000000085,-100.00000000000044,80.00000000000036,130.00000000000057,280.00000000000125,910.0000000000041,1110.000000000005,1010.0000000000044
210.00000000000094,30.000000000000135,-180.0000000000008,-120.00000000000054,190.00000000000085,-100.00000000000044,80.00000000000036,130.00000000000057,280.00000000000125,910.0000000000041,1110.000000000005,1010.0000000000044
210.00000000000094,30.000000000000135,-180.0000000000008,-120.00000000000054,200.00000000000088,-100.00000000000044,70.00000000000031,120.00000000000054,290.0000000000013,920.0000000000041,1110.000000000005,1010.0000000000044
210.00000000000094,30.000000000000135,-180.0000000000008,-120.00000000000054,200.00000000000088,-100.00000000000044,70.00000000000031,110.00000000000048,290.0000000000013,920.0000000000041,1110.000000000005,1010.0000000000044
210.00000000000094,30.000000000000135,-180.0000000000008,-120.00000000000054,190.00000000000085,-100.00000000000044,70.00000000000031,100.00000000000044,300.0000000000013,920.0000000000041,1110.000000000005,1010.0000000000044
210.00000000000094,30.000000000000135,-180.0000000000008,-120.00000000000054,190.00000000000085,-100.00000000000044,80.00000000000036,90.0000000000004,300.0000000000013,920.0000000000041,1110.000000000005,1010.0000000000044
210.00000000000094,20.00000000000009,-180.0000000000008,-120.00000000000054,190.00000000000085,-100.00000000000044,80.00000000000036,80.00000000000036,300.0000000000013,930.0000000000041,1110.000000000005,1010.0000000000044
210.00000000000094,20.00000000000009,-180.0000000000008,-110.00000000000048,190.00000000000085,-100.00000000000044,80.00000000000036,70.00000000000031,300.0000000000013,920.0000000000041,1110.000000000005,1000.0000000000044
210.00000000000094,20.00000000000009,-180.0000000000008,-110.00000000000048,190.00000000000085,-100.00000000000044,80.00000000000036,60.00000000000027,300.0000000000013,920.0000000000041,1100.0000000000048,1000.0000000000044
210.00000000000094,20.00000000000009,-180.0000000000008,-110.00000000000048,190.00000000000085,-100.00000000000044,80.00000000000036,50.00000000000022,300.0000000000013,920.0000000000041,1100.0000000000048,990.0000000000044
210.00000000000094,20.00000000000009,-180.0000000000008,-110.00000000000048,190.00000000000085,-100.00000000000044,80.00000000000036,40.00000000000018,300.0000000000013,910.0000000000041,1090.0000000000048,990.0000000000044
210.00000000000094,20.00000000000009,-180.0000000000008,-110.00000000000048,190.00000000000085,-100.00000000000044,80.00000000000036,40.00000000000018,300.0000000000013,910.0000000000041,1090.0000000000048,980.0000000000043
200.00000000000088,20.00000000000009,-180.0000000000008,-110.00000000000048,190.00000000000085,-100.00000000000044,80.00000000000036,30.000000000000135,300.0000000000013,910.0000000000041,1080.0000000000048,980.0000000000043
210.00000000000094,20.00000000000009,-180.0000000000008,-110.00000000000048,190.00000000000085,-100.00000000000044,80.00000000000036,30.000000000000135,290.0000000000013,900.000000000004,1080.0000000000048,970.0000000000043
210.00000000000094,20.00000000000009,-180.0000000000008,-110.00000000000048,190.00000000000085,-100.00000000000044,80.00000000000036,30.000000000000135,290.0000000000013,900.000000000004,1070.0000000000048,970.0000000000043
200.00000000000088,20.00000000000009,-180.0000000000008,-110.00000000000048,190.00000000000085,-100.00000000000044,80.00000000000036,30.000000000000135,290.0000000000013,900.000000000004,1070.0000000000048,960.0000000000043
200.00000000000088,20.00000000000009,-180.0000000000008,-110.00000000000048,190.00000000000085,-100.00000000000044,80.00000000000036,20.00000000000009,280.00000000000125,890.000000000004,1060.0000000000048,960.0000000000043
210.00000000000094,20.00000000000009,-180.0000000000008,-110.00000000000048,190.00000000000085,-100.00000000000044,80.00000000000036,20.00000000000009,280.00000000000125,890.000000000004,1050.0000000000048,950.0000000000042
200.00000000000088,20.00000000000009,-180.0000000000008,-110.00000000000048,190.00000000000085,-100.00000000000044,80.00000000000036,20.00000000000009,280.00000000000125,890.000000000004,1050.0000000000048,950.0000000000042
200.00000000000088,20.00000000000009,-180.0000000000008,-110.00000000000048,180.0000000000008,-100.00000000000044,80.00000000000036,20.00000000000009,280.00000000000125,880.0000000000039,1050.0000000000048,950.0000000000042
200.00000000000088,20.00000000000009,-180.0000000000008,-110.00000000000048,190.00000000000085,-100.00000000000044,80.00000000000036,20.00000000000009,270.0000000000012,880.0000000000039,1040.0000000000045,940.0000000000042
200.00000000000088,20.00000000000009,-170.00000000000077,-110.00000000000048,180.0000000000008,-100.00000000000044,80.00000000000036,10.000000000000044,270.0000000000012,880.0000000000039,1040.0000000000045,930.0000000000041
190.00000000000085,30.000000000000135,-170.00000000000077,-110.00000000000048,180.0000000000008,-100.00000000000044,80.00000000000036,10.000000000000044,270.0000000000012,870.0000000000039,1030.0000000000045,930.0000000000041
190.00000000000085,20.00000000000009,-170.00000000000077,-110.00000000000048,180.0000000000008,-100.00000000000044,80.00000000000036,10.000000000000044,260.00000000000114,870.0000000000039,1030.0000000000045,920.0000000000041
190.00000000000085,20.00000000000009,-170.00000000000077,-110.00000000000048,180.0000000000008,-100.00000000000044,70.00000000000031,-0.0,260.00000000000114,860.0000000000039,1020.0000000000045,920.0000000000041
190.00000000000085,20.00000000000009,-160.0000000000007,-110.00000000000048,170.00000000000077,-90.0000000000004,70.00000000000031,-0.0,260.00000000000114,860.0000000000039,1020.0000000000045,910.0000000000041
190.00000000000085,30.000000000000135,-160.0000000000007,-110.00000000000048,170.00000000000077,-90.0000000000004,70.00000000000031,-0.0,260.00000000000114,860.0000000000039,1010.0000000000044,910.0000000000041
190.00000000000085,30.000000000000135,-160.0000000000007,-110.00000000000048,170.00000000000077,-90.0000000000004,80.00000000000036,10.000000000000044,260.00000000000114,860.0000000000039,1010.0000000000044,910.0000000000041
190.00000000000085,30.000000000000135,-160.0000000000007,-110.00000000000048,170.00000000000077,-90.0000000000004,80.00000000000036,10.000000000000044,260.00000000000114,860.0000000000039,1010.0000000000044,900.000000000004
190.00000000000085,30.000000000000135,-160.0000000000007,-110.00000000000048,170.00000000000077,-90.0000000000004,80.00000000000036,-0.0,260.00000000000114,860.0000000000039,1010.0000000000044,900.000000000004
190.00000000000085,30.000000000000135,-160.0000000000007,-110.00000000000048,180.0000000000008,-90.0000000000004,80.00000000000036,-0.0,260.00000000000114,860.0000000000039,1000.0000000000044,890.000000000004
190.00000000000085,30.000000000000135,-160.0000000000007,-110.00000000000048,180.0000000000008,-90.0000000000004,80.00000000000036,-0.0,260.00000000000114,850.0000000000038,1000.0000000000044,890.000000000004
190.00000000000085,30.000000000000135,-160.0000000000007,-110.00000000000048,180.0000000000008,-90.0000000000004,80.00000000000036,-0.0,260.00000000000114,850.0000000000038,1000.0000000000044,890.000000000004
200.00000000000088,30.000000000000135,-160.0000000000007,-120.00000000000054,180.0000000000008,-90.0000000000004,80.00000000000036,-0.0,260.00000000000114,850.0000000000038,990.0000000000044,880.0000000000039
200.00000000000088,40.00000000000018,-160.0000000000007,-120.00000000000054,180.0000000000008,-90.0000000000004,80.00000000000036,-0.0,260.00000000000114,850.0000000000038,990.0000000000044,880.0000000000039
200.00000000000088,40.00000000000018,-160.0000000000007,-130.00000000000057,180.0000000000008,-80.00000000000036,80.00000000000036,-0.0,260.00000000000114,850.0000000000038,990.0000000000044,880.0000000000039
210.00000000000094,40.00000000000018,-160.0000000000007,-140.00000000000063,180.0000000000008,-80.00000000000036,80.00000000000036,-0.0,260.00000000000114,850.0000000000038,990.0000000000044,870.0000000000039
220.00000000000097,50.00000000000022,-160.0000000000007,-140.00000000000063,190.00000000000085,-80.00000000000036,80.00000000000036,-0.0,260.00000000000114,850.0000000000038,980.0000000000043,870.0000000000039
220.00000000000097,60.00000000000027,-160.0000000000007,-140.00000000000063,190.00000000000085,-70.00000000000031,80.00000000000036,-0.0,260.00000000000114,850.0000000000038,980.0000000000043,870.0000000000039
230.00000000000102,60.00000000000027,-160.0000000000007,-150.00000000000065,190.00000000000085,-70.00000000000031,80.00000000000036,-0.0,260.00000000000114,850.0000000000038,980.0000000000043,870.0000000000039
240.00000000000108,60.00000000000027,-160.0000000000007,-160.0000000000007,200.00000000000088,-70.00000000000031,80.00000000000036,10.000000000000044,260.00000000000114,850.0000000000038,980.0000000000043,870.0000000000039
250.0000000000011,70.00000000000031,-170.00000000000077,-160.0000000000007,200.00000000000088,-70.00000000000031,80.00000000000036,10.000000000000044,260.00000000000114,850.0000000000038,980.0000000000043,870.0000000000039
250.0000000000011,80.00000000000036,-170.00000000000077,-170.00000000000077,200.00000000000088,-70.00000000000031,80.00000000000036,10.000000000000044,260.00000000000114,850.0000000000038,980.0000000000043,870.0000000000039
260.00000000000114,80.00000000000036,-170.00000000000077,-170.00000000000077,210.00000000000094,-70.00000000000031,80.00000000000036,10.000000000000044,260.00000000000114,850.0000000000038,980.0000000000043,860.0000000000039
260.00000000000114,80.00000000000036,-170.00000000000077,-180.0000000000008,210.00000000000094,-60.00000000000027,80.00000000000036,10.000000000000044,260.00000000000114,840.0000000000038,970.0000000000043,860.0000000000039
260.00000000000114,90.0000000000004,-160.0000000000007,-180.0000000000008,210.00000000000094,-60.00000000000027,80.00000000000036,10.000000000000044,260.00000000000114,850.0000000000038,970.0000000000043,860.0000000000039
260.00000000000114,90.0000000000004,-160.0000000000007,-190.00000000000085,210.00000000000094,-60.00000000000027,70.00000000000031,-0.0,260.00000000000114,850.0000000000038,970.0000000000043,860.0000000000039
270.0000000000012,100.00000000000044,-170.00000000000077,-190.00000000000085,220.00000000000097,-60.00000000000027,70.00000000000031,-0.0,260.00000000000114,840.0000000000038,970.0000000000043,860.0000000000039
280.00000000000125,100.00000000000044,-170.00000000000077,-200.00000000000088,220.00000000000097,-50.00000000000022,70.00000000000031,10.000000000000044,260.00000000000114,840.0000000000038,970.0000000000043,860.0000000000039
280.00000000000125,110.00000000000048,-160.0000000000007,-200.00000000000088,220.00000000000097,-50.00000000000022,70.00000000000031,-0.0,260.00000000000114,840.0000000000038,970.0000000000043,860.0000000000039
280.00000000000125,110.00000000000048,-170.00000000000077,-200.00000000000088,230.00000000000102,-50.00000000000022,70.00000000000031,-0.0,260.00000000000114,840.0000000000038,970.0000000000043,860.0000000000039
280.00000000000125,110.00000000000048,-170.00000000000077,-190.00000000000085,220.00000000000097,-50.00000000000022,70.00000000000031,-0.0,260.00000000000114,840.0000000000038,970.0000000000043,860.0000000000039
270.0000000000012,110.00000000000048,-160.0000000000007,-190.00000000000085,210.00000000000094,-50.00000000000022,70.00000000000031,-0.0,260.00000000000114,840.0000000000038,970.0000000000043,850.0000000000038
260.00000000000114,100.00000000000044,-160.0000000000007,-190.00000000000085,210.00000000000094,-50.00000000000022,70.00000000000031,-0.0,260.00000000000114,840.0000000000038,960.0000000000043,850.0000000000038
250.0000000000011,100.00000000000044,-150.00000000000065,-180.0000000000008,200.00000000000088,-60.00000000000027,70.00000000000031,-0.0,260.00000000000114,840.0000000000038,960.0000000000043,840.0000000000038
240.00000000000108,90.0000000000004,-150.00000000000065,-160.0000000000007,190.00000000000085,-60.00000000000027,70.00000000000031,-0.0,260.00000000000114,840.0000000000038,960.0000000000043,840.0000000000038
230.00000000000102,80.00000000000036,-140.00000000000063,-160.0000000000007,180.0000000000008,-50.00000000000022,60.00000000000027,-0.0,260.00000000000114,840.0000000000038,950.0000000000042,830.0000000000036
210.00000000000094,80.00000000000036,-140.00000000000063,-150.00000000000065,170.00000000000077,-50.00000000000022,60.00000000000027,-0.0,260.00000000000114,830.0000000000036,950.0000000000042,820.0000000000036
200.00000000000088,70.00000000000031,-130.00000000000057,-140.00000000000063,160.0000000000007,-60.00000000000027,60.00000000000027,-0.0,250.0000000000011,830.0000000000036,940.0000000000042,810.0000000000036
180.0000000000008,60.00000000000027,-130.00000000000057,-120.00000000000054,150.00000000000065,-60.00000000000027,60.00000000000027,-0.0,250.0000000000011,830.0000000000036,940.0000000000042,800.0000000000035
180.0000000000008,50.00000000000022,-120.00000000000054,-120.00000000000054,150.00000000000065,-60.00000000000027,60.00000000000027,-0.0,260.00000000000114,830.0000000000036,930.0000000000041,790.0000000000035
170.00000000000077,50.00000000000022,-120.00000000000054,-110.00000000000048,140.00000000000063,-60.00000000000027,60.00000000000027,-0.0,250.0000000000011,830.0000000000036,930.0000000000041,780.0000000000034
160.0000000000007,50.00000000000022,-120.00000000000054,-100.00000000000044,140.00000000000063,-60.00000000000027,60.00000000000027,-0.0,250.0000000000011,830.0000000000036,930.0000000000041,770.0000000000034
150.00000000000065,40.00000000000018,-110.00000000000048,-100.00000000000044,130.00000000000057,-60.00000000000027,60.00000000000027,-0.0,250.0000000000011,830.0000000000036,930.0000000000041,760.0000000000034
150.00000000000065,40.00000000000018,-110.00000000000048,-90.0000000000004,130.00000000000057,-60.00000000000027,60.00000000000027,-0.0,260.00000000000114,830.0000000000036,920.0000000000041,760.0000000000034
150.00000000000065,40.00000000000018,-110.00000000000048,-90.0000000000004,130.00000000000057,-70.00000000000031,60.00000000000027,-0.0,260.00000000000114,820.0000000000036,920.0000000000041,750.0000000000033
140.00000000000063,30.000000000000135,-120.00000000000054,-80.00000000000036,130.00000000000057,-70.00000000000031,60.00000000000027,-0.0,260.00000000000114,820.0000000000036,920.0000000000041,750.0000000000033
140.00000000000063,20.00000000000009,-110.00000000000048,-80.00000000000036,120.00000000000054,-70.00000000000031,60.00000000000027,-0.0,260.00000000000114,820.0000000000036,920.0000000000041,750.0000000000033
140.00000000000063,20.00000000000009,-110.00000000000048,-80.00000000000036,120.00000000000054,-70.00000000000031,60.00000000000027,-0.0,260.00000000000114,820.0000000000036,920.0000000000041,750.0000000000033
140.00000000000063,20.00000000000009,-110.00000000000048,-80.00000000000036,120.00000000000054,-70.00000000000031,70.00000000000031,-0.0,260.00000000000114,820.0000000000036,920.0000000000041,740.0000000000033
130.00000000000057,20.00000000000009,-110.00000000000048,-70.00000000000031,120.00000000000054,-80.00000000000036,70.00000000000031,-0.0,260.00000000000114,820.0000000000036,920.0000000000041,740.0000000000033
130.00000000000057,10.000000000000044,-110.00000000000048,-70.00000000000031,120.00000000000054,-70.00000000000031,70.00000000000031,-0.0,270.0000000000012,830.0000000000036,920.0000000000041,740.0000000000033
120.00000000000054,10.000000000000044,-110.00000000000048,-70.00000000000031,120.00000000000054,-80.00000000000036,80.00000000000036,-0.0,280.00000000000125,840.0000000000038,920.0000000000041,750.0000000000033
120.00000000000054,10.000000000000044,-110.00000000000048,-60.00000000000027,110.00000000000048,-80.00000000000036,80.00000000000036,10.000000000000044,280.00000000000125,840.0000000000038,920.0000000000041,750.0000000000033
110.00000000000048,10.000000000000044,-100.00000000000044,-60.00000000000027,110.00000000000048,-70.00000000000031,80.00000000000036,10.000000000000044,290.0000000000013,840.0000000000038,930.0000000000041,750.0000000000033
110.00000000000048,10.000000000000044,-100.00000000000044,-60.00000000000027,110.00000000000048,-80.00000000000036,80.00000000000036,10.000000000000044,300.0000000000013,850.0000000000038,930.0000000000041,750.0000000000033
110.00000000000048,-0.0,-100.00000000000044,-60.00000000000027,110.00000000000048,-80.00000000000036,90.0000000000004,20.00000000000009,300.0000000000013,860.0000000000039,930.0000000000041,760.0000000000034
110.00000000000048,-0.0,-100.00000000000044,-50.00000000000022,100.00000000000044,-80.00000000000036,90.0000000000004,20.00000000000009,300.0000000000013,860.0000000000039,940.0000000000042,760.0000000000034
110.00000000000048,-0.0,-100.00000000000044,-50.00000000000022,100.00000000000044,-70.00000000000031,80.00000000000036,20.00000000000009,310.00000000000136,870.0000000000039,940.0000000000042,770.0000000000034
100.00000000000044,-0.0,-100.00000000000044,-50.00000000000022,100.00000000000044,-70.00000000000031,80.00000000000036,30.000000000000135,320.0000000000014,880.0000000000039,950.0000000000042,770.0000000000034
100.00000000000044,-0.0,-100.00000000000044,-50.00000000000022,90.0000000000004,-70.00000000000031,70.00000000000031,30.000000000000135,320.0000000000014,880.0000000000039,960.0000000000043,780.0000000000034
100.00000000000044,-0.0,-90.0000000000004,-50.00000000000022,90.0000000000004,-70.00000000000031,50.00000000000022,40.00000000000018,320.0000000000014,880.0000000000039,960.0000000000043,790.0000000000035
100.00000000000044,-0.0,-90.0000000000004,-50.00000000000022,90.0000000000004,-70.00000000000031,40.00000000000018,30.000000000000135,320.0000000000014,880.0000000000039,970.0000000000043,790.0000000000035
90.0000000000004,-0.0,-90.0000000000004,-50.00000000000022,90.0000000000004,-70.00000000000031,30.000000000000135,30.000000000000135,310.00000000000136,870.0000000000039,970.0000000000043,790.0000000000035
90.0000000000004,-0.0,-90.0000000000004,-50.00000000000022,90.0000000000004,-70.00000000000031,20.00000000000009,20.00000000000009,310.00000000000136,860.0000000000039,960.0000000000043,790.0000000000035
90.0000000000004,-0.0,-80.00000000000036,-50.00000000000022,90.0000000000004,-60.00000000000027,10.000000000000044,20.00000000000009,300.0000000000013,850.0000000000038,950.0000000000042,780.0000000000034
90.0000000000004,-0.0,-80.00000000000036,-50.00000000000022,90.0000000000004,-60.00000000000027,10.000000000000044,10.000000000000044,290.0000000000013,840.0000000000038,940.0000000000042,770.0000000000034
90.0000000000004,-0.0,-80.00000000000036,-50.00000000000022,80.00000000000036,-70.00000000000031,10.000000000000044,-0.0,270.0000000000012,830.0000000000036,930.0000000000041,750.0000000000033
90.0000000000004,-0.0,-80.00000000000036,-50.00000000000022,80.00000000000036,-60.00000000000027,10.000000000000044,-0.0,260.00000000000114,820.0000000000036,920.0000000000041,740.0000000000033
90.0000000000004,-0.0,-80.00000000000036,-50.00000000000022,80.00000000000036,-60.00000000000027,10.000000000000044,-0.0,250.0000000000011,800.0000000000035,910.0000000000041,730.0000000000033
90.0000000000004,10.000000000000044,-80.00000000000036,-50.00000000000022,80.00000000000036,-60.00000000000027,20.00000000000009,-0.0,250.0000000000011,800.0000000000035,890.000000000004,710.0000000000032
90.0000000000004,-0.0,-80.00000000000036,-40.00000000000018,80.00000000000036,-60.00000000000027,30.000000000000135,-0.0,240.00000000000108,790.0000000000035,880.0000000000039,700.0000000000031
90.0000000000004,-0.0,-80.00000000000036,-50.00000000000022,80.00000000000036,-60.00000000000027,30.000000000000135,-0.0,240.00000000000108,790.0000000000035,870.0000000000039,690.0000000000031
80.00000000000036,-0.0,-80.00000000000036,-50.00000000000022,80.00000000000036,-60.00000000000027,40.00000000000018,-0.0,230.00000000000102,780.0000000000034,860.0000000000039,680.0000000000031
80.00000000000036,-0.0,-80.00000000000036,-40.00000000000018,80.00000000000036,-60.00000000000027,50.00000000000022,-0.0,230.00000000000102,770.0000000000034,860.0000000000039,670.000000000003
90.0000000000004,-0.0,-80.00000000000036,-50.00000000000022,80.00000000000036,-60.00000000000027,50.00000000000022,-10.000000000000044,230.00000000000102,770.0000000000034,850.0000000000038,660.000000000003
90.0000000000004,10.000000000000044,-80.00000000000036,-50.00000000000022,80.00000000000036,-60.00000000000027,50.00000000000022,-10.000000000000044,220.00000000000097,770.0000000000034,840.0000000000038,660.000000000003
80.00000000000036,10.000000000000044,-80.00000000000036,-50.00000000000022,80.00000000000036,-60.00000000000027,50.00000000000022,-10.000000000000044,220.00000000000097,770.0000000000034,840.0000000000038,650.0000000000028
90.0000000000004,10.000000000000044,-80.00000000000036,-50.00000000000022,80.00000000000036,-60.00000000000027,60.00000000000027,-10.000000000000044,220.00000000000097,770.0000000000034,840.0000000000038,650.0000000000028
90.0000000000004,10.000000000000044,-80.00000000000036,-50.00000000000022,80.00000000000036,-60.00000000000027,60.00000000000027,-10.000000000000044,220.00000000000097,760.0000000000034,830.0000000000036,650.0000000000028
80.00000000000036,10.000000000000044,-70.00000000000031,-50.00000000000022,80.00000000000036,-60.00000000000027,60.00000000000027,-10.000000000000044,220.00000000000097,760.0000000000034,830.0000000000036,640.0000000000028
80.00000000000036,10.000000000000044,-70.00000000000031,-50.00000000000022,80.00000000000036,-60.00000000000027,60.00000000000027,-10.000000000000044,220.00000000000097,760.0000000000034,830.0000000000036,640.0000000000028
90.0000000000004,10.000000000000044,-70.00000000000031,-50.00000000000022,80.00000000000036,-60.00000000000027,60.00000000000027,-10.000000000000044,220.00000000000097,760.0000000000034,830.0000000000036,640.0000000000028
80.00000000000036,10.000000000000044,-70.00000000000031,-50.00000000000022,80.00000000000036,-60.00000000000027,70.00000000000031,-10.000000000000044,220.00000000000097,760.0000000000034,820.0000000000036,630.0000000000028
80.00000000000036,10.000000000000044,-70.00000000000031,-40.00000000000018,70.00000000000031,-50.00000000000022,70.00000000000031,-0.0,220.00000000000097,760.0000000000034,820.0000000000036,630.0000000000028
80.00000000000036,10.000000000000044,-70.00000000000031,-40.00000000000018,70.00000000000031,-50.00000000000022,70.00000000000031,-0.0,220.00000000000097,760.0000000000034,820.0000000000036,630.0000000000028
80.00000000000036,10.000000000000044,-70.00000000000031,-40.00000000000018,70.00000000000031,-50.00000000000022,70.00000000000031,-0.0,220.00000000000097,760.0000000000034,820.0000000000036,630.0000000000028
80.00000000000036,10.000000000000044,-70.00000000000031,-40.00000000000018,70.00000000000031,-50.00000000000022,70.00000000000031,-0.0,210.00000000000094,750.0000000000033,820.0000000000036,620.0000000000027
80.00000000000036,10.000000000000044,-70.00000000000031,-50.00000000000022,70.00000000000031,-60.00000000000027,60.00000000000027,-0.0,210.00000000000094,750.0000000000033,810.0000000000036,620.0000000000027
80.00000000000036,10.000000000000044,-70.00000000000031,-50.00000000000022,70.00000000000031,-60.00000000000027,60.00000000000027,-0.0,220.00000000000097,760.0000000000034,810.0000000000036,610.0000000000027
70.00000000000031,10.000000000000044,-70.00000000000031,-40.00000000000018,70.00000000000031,-60.00000000000027,70.00000000000031,-0.0,220.00000000000097,760.0000000000034,810.0000000000036,620.0000000000027
70.00000000000031,-0.0,-70.00000000000031,-40.00000000000018,70.00000000000031,-60.00000000000027,70.00000000000031,-0.0,220.00000000000097,760.0000000000034,810.0000000000036,620.0000000000027
70.00000000000031,-0.0,-70.00000000000031,-40.00000000000018,70.00000000000031,-60.00000000000027,70.00000000000031,-0.0,230.00000000000102,760.0000000000034,810.0000000000036,620.0000000000027
70.00000000000031,-0.0,-70.00000000000031,-40.00000000000018,70.00000000000031,-60.00000000000027,80.00000000000036,-0.0,240.00000000000108,770.0000000000034,820.0000000000036,620.0000000000027
70.00000000000031,-0.0,-60.00000000000027,-30.000000000000135,60.00000000000027,-60.00000000000027,90.0000000000004,-0.0,270.0000000000012,800.0000000000035,830.0000000000036,630.0000000000028
70.00000000000031,-0.0,-60.00000000000027,-40.00000000000018,70.00000000000031,-60.00000000000027,100.00000000000044,-0.0,320.0000000000014,850.0000000000038,850.0000000000038,660.000000000003
70.00000000000031,-0.0,-60.00000000000027,-40.00000000000018,60.00000000000027,-50.00000000000022,120.00000000000054,30.000000000000135,380.0000000000017,920.0000000000041,900.000000000004,700.0000000000031
60.00000000000027,-0.0,-60.00000000000027,-30.000000000000135,60.00000000000027,-60.00000000000027,130.00000000000057,90.0000000000004,460.00000000000205,1010.0000000000044,970.0000000000043,760.0000000000034
60.00000000000027,-0.0,-60.00000000000027,-30.000000000000135,60.00000000000027,-50.00000000000022,130.00000000000057,170.00000000000077,550.0000000000024,1120.000000000005,1060.0000000000048,850.0000000000038
60.00000000000027,-0.0,-60.00000000000027,-30.000000000000135,60.00000000000027,-50.00000000000022,120.00000000000054,260.00000000000114,650.0000000000028,1240.0000000000055,1180.0000000000052,960.0000000000043
60.00000000000027,-0.0,-60.00000000000027,-30.000000000000135,60.00000000000027,-50.00000000000022,80.00000000000036,370.00000000000165,730.0000000000033,1340.000000000006,1300.0000000000057,1070.0000000000048
60.00000000000027,-0.0,-60.00000000000027,-30.000000000000135,60.00000000000027,-50.00000000000022,20.00000000000009,480.00000000000216,780.0000000000034,1400.0000000000061,1390.0000000000061,1160.0000000000052
60.00000000000027,-0.0,-50.00000000000022,-30.000000000000135,60.00000000000027,-50.00000000000022,-40.00000000000018,540.0000000000024,760.0000000000034,1380.0000000000061,1450.0000000000064,1200.0000000000052
60.00000000000027,-0.0,-40.00000000000018,-30.000000000000135,50.00000000000022,-40.00000000000018,-110.00000000000048,530.0000000000024,690.0000000000031,1300.0000000000057,1410.0000000000064,1160.0000000000052
60.00000000000027,10.000000000000044,-40.00000000000018,-40.00000000000018,50.00000000000022,-40.00000000000018,-160.0000000000007,450.000000000002,560.0000000000025,1150.000000000005,1320.000000000006,1070.0000000000048
60.00000000000027,10.000000000000044,-30.000000000000135,-40.00000000000018,40.00000000000018,-30.000000000000135,-210.00000000000094,320.0000000000014,370.00000000000165,950.0000000000042,1160.0000000000052,920.0000000000041
60.00000000000027,20.00000000000009,-20.00000000000009,-50.00000000000022,40.00000000000018,-20.00000000000009,-250.0000000000011,130.00000000000057,170.00000000000077,730.0000000000033,970.0000000000043,740.0000000000033
60.00000000000027,40.00000000000018,-10.000000000000044,-60.00000000000027,30.000000000000135,-0.0,-280.00000000000125,-60.00000000000027,-0.0,530.0000000000024,770.0000000000034,560.0000000000025
70.00000000000031,50.00000000000022,-0.0,-70.00000000000031,30.000000000000135,-0.0,-300.0000000000013,-240.00000000000108,-150.00000000000065,380.0000000000017,590.0000000000026,400.00000000000176
70.00000000000031,60.00000000000027,10.000000000000044,-80.00000000000036,30.000000000000135,10.000000000000044,-300.0000000000013,-380.0000000000017,-260.00000000000114,270.0000000000012,450.000000000002,280.00000000000125
80.00000000000036,80.00000000000036,10.000000000000044,-90.0000000000004,30.000000000000135,20.00000000000009,-280.00000000000125,-480.00000000000216,-310.00000000000136,220.00000000000097,350.00000000000153,190.00000000000085
80.00000000000036,90.0000000000004,20.00000000000009,-100.00000000000044,30.000000000000135,30.000000000000135,-250.0000000000011,-520.0000000000023,-300.0000000000013,220.00000000000097,300.0000000000013,150.00000000000065
90.0000000000004,100.00000000000044,30.000000000000135,-110.00000000000048,30.000000000000135,40.00000000000018,-200.00000000000088,-510.0000000000023,-250.0000000000011,270.0000000000012,310.00000000000136,160.0000000000007
110.00000000000048,120.00000000000054,30.000000000000135,-130.00000000000057,40.00000000000018,50.00000000000022,-150.00000000000065,-450.000000000002,-180.0000000000008,340.00000000000153,360.0000000000016,210.00000000000094
120.00000000000054,130.00000000000057,30.000000000000135,-130.00000000000057,40.00000000000018,50.00000000000022,-110.00000000000048,-370.00000000000165,-90.0000000000004,430.00000000000193,430.00000000000193,260.00000000000114
130.00000000000057,140.00000000000063,20.00000000000009,-150.00000000000065,50.00000000000022,50.00000000000022,-70.00000000000031,-280.00000000000125,-0.0,520.0000000000023,500.0000000000022,330.0000000000015
150.00000000000065,150.00000000000065,10.000000000000044,-160.0000000000007,70.00000000000031,50.00000000000022,-20.00000000000009,-180.0000000000008,80.00000000000036,590.0000000000026,580.0000000000026,400.00000000000176
150.00000000000065,160.0000000000007,10.000000000000044,-160.0000000000007,70.00000000000031,50.00000000000022,20.00000000000009,-100.00000000000044,130.00000000000057,640.0000000000028,640.0000000000028,450.000000000002
150.00000000000065,160.0000000000007,10.000000000000044,-150.00000000000065,70.00000000000031,40.00000000000018,40.00000000000018,-40.00000000000018,170.00000000000077,670.000000000003,680.0000000000031,470.0000000000021
150.00000000000065,150.00000000000065,-0.0,-150.00000000000065,70.00000000000031,40.00000000000018,60.00000000000027,-10.000000000000044,190.00000000000085,690.0000000000031,700.0000000000031,490.00000000000216
140.00000000000063,150.00000000000065,-0.0,-140.00000000000063,70.00000000000031,30.000000000000135,80.00000000000036,-0.0,200.00000000000088,710.0000000000032,720.0000000000032,510.0000000000023
130.00000000000057,140.00000000000063,-10.000000000000044,-130.00000000000057,70.00000000000031,10.000000000000044,90.0000000000004,20.00000000000009,200.00000000000088,710.0000000000032,730.0000000000033,520.0000000000023
110.00000000000048,120.00000000000054,-10.000000000000044,-110.00000000000048,60.00000000000027,-0.0,90.0000000000004,30.000000000000135,210.00000000000094,720.0000000000032,740.0000000000033,530.0000000000024
100.00000000000044,90.0000000000004,-20.00000000000009,-90.0000000000004,60.00000000000027,-0.0,90.0000000000004,30.000000000000135,210.00000000000094,720.0000000000032,750.0000000000033,530.0000000000024
80.00000000000036,70.00000000000031,-20.00000000000009,-70.00000000000031,50.00000000000022,-10.000000000000044,90.0000000000004,40.00000000000018,220.00000000000097,730.0000000000033,750.0000000000033,530.0000000000024
60.00000000000027,50.00000000000022,-30.000000000000135,-60.00000000000027,40.00000000000018,-20.00000000000009,100.00000000000044,40.00000000000018,220.00000000000097,730.0000000000033,750.0000000000033,540.0000000000024
50.00000000000022,30.000000000000135,-30.000000000000135,-40.00000000000018,40.00000000000018,-30.000000000000135,100.00000000000044,50.00000000000022,220.00000000000097,730.0000000000033,750.0000000000033,540.0000000000024
40.00000000000018,10.000000000000044,-30.000000000000135,-20.00000000000009,30.000000000000135,-40.00000000000018,90.0000000000004,50.00000000000022,220.00000000000097,730.0000000000033,750.0000000000033,540.0000000000024
30.000000000000135,-0.0,-40.00000000000018,-10.000000000000044,30.000000000000135,-50.00000000000022,90.0000000000004,50.00000000000022,230.00000000000102,740.0000000000033,750.0000000000033,540.0000000000024
30.000000000000135,-10.000000000000044,-40.00000000000018,-0.0,30.000000000000135,-60.00000000000027,90.0000000000004,60.00000000000027,230.00000000000102,730.0000000000033,760.0000000000034,540.0000000000024
20.00000000000009,-20.00000000000009,-40.00000000000018,-0.0,30.000000000000135,-60.00000000000027,90.0000000000004,60.00000000000027,220.00000000000097,730.0000000000033,750.0000000000033,540.0000000000024
20.00000000000009,-30.000000000000135,-50.00000000000022,10.000000000000044,30.000000000000135,-60.00000000000027,90.0000000000004,60.00000000000027,220.00000000000097,730.0000000000033,750.0000000000033,540.0000000000024
10.000000000000044,-30.000000000000135,-50.00000000000022,10.000000000000044,30.000000000000135,-70.00000000000031,90.0000000000004,60.00000000000027,230.00000000000102,730.0000000000033,750.0000000000033,540.0000000000024
10.000000000000044,-40.00000000000018,-50.00000000000022,10.000000000000044,30.000000000000135,-70.00000000000031,90.0000000000004,70.00000000000031,230.00000000000102,730.0000000000033,750.0000000000033,540.0000000000024
10.000000000000044,-40.00000000000018,-50.00000000000022,20.00000000000009,30.000000000000135,-70.00000000000031,80.00000000000036,70.00000000000031,230.00000000000102,730.0000000000033,750.0000000000033,540.0000000000024
10.000000000000044,-40.00000000000018,-50.00000000000022,20.00000000000009,30.000000000000135,-70.00000000000031,80.00000000000036,70.00000000000031,230.00000000000102,730.0000000000033,750.0000000000033,530.0000000000024
10.000000000000044,-50.00000000000022,-50.00000000000022,20.00000000000009,30.000000000000135,-70.00000000000031,90.0000000000004,70.00000000000031,230.00000000000102,730.0000000000033,740.0000000000033,530.0000000000024
-0.0,-50.00000000000022,-50.00000000000022,20.00000000000009,20.00000000000009,-70.00000000000031,90.0000000000004,70.00000000000031,230.00000000000102,730.0000000000033,740.0000000000033,530.0000000000024
-0.0,-50.00000000000022,-50.00000000000022,20.00000000000009,20.00000000000009,-70.00000000000031,90.0000000000004,70.00000000000031,220.00000000000097,720.0000000000032,740.0000000000033,530.0000000000024
-0.0,-50.00000000000022,-40.00000000000018,30.000000000000135,20.00000000000009,-70.00000000000031,90.0000000000004,70.00000000000031,220.00000000000097,720.0000000000032,740.0000000000033,520.0000000000023
-10.000000000000044,-50.00000000000022,-40.00000000000018,30.000000000000135,10.000000000000044,-70.00000000000031,80.00000000000036,70.00000000000031,220.00000000000097,720.0000000000032,730.0000000000033,520.0000000000023
-10.000000000000044,-50.00000000000022,-40.00000000000018,30.000000000000135,10.000000000000044,-70.00000000000031,80.00000000000036,70.00000000000031,220.00000000000097,710.0000000000032,730.0000000000033,520.0000000000023
-0.0,-50.00000000000022,-40.00000000000018,30.000000000000135,20.00000000000009,-70.00000000000031,80.00000000000036,70.00000000000031,220.00000000000097,710.0000000000032,730.0000000000033,510.0000000000023
-10.000000000000044,-50.00000000000022,-40.00000000000018,30.000000000000135,10.000000000000044,-70.00000000000031,80.00000000000036,70.00000000000031,220.00000000000097,710.0000000000032,730.0000000000033,510.0000000000023
-10.000000000000044,-50.00000000000022,-40.00000000000018,30.000000000000135,10.000000000000044,-70.00000000000031,80.00000000000036,70.00000000000031,220.00000000000097,710.0000000000032,720.0000000000032,510.0000000000023
-0.0,-50.00000000000022,-40.00000000000018,20.00000000000009,10.000000000000044,-70.00000000000031,80.00000000000036,70.00000000000031,220.00000000000097,710.0000000000032,720.0000000000032,510.0000000000023
-10.000000000000044,-50.00000000000022,-30.000000000000135,20.00000000000009,10.000000000000044,-60.00000000000027,80.00000000000036,80.00000000000036,220.00000000000097,710.0000000000032,720.0000000000032,510.0000000000023
-20.00000000000009,-40.00000000000018,-10.000000000000044,20.00000000000009,-10.000000000000044,-50.00000000000022,80.00000000000036,90.0000000000004,220.00000000000097,710.0000000000032,730.0000000000033,510.0000000000023
-20.00000000000009,-30.000000000000135,10.000000000000044,20.00000000000009,-20.00000000000009,-30.000000000000135,80.00000000000036,90.0000000000004,220.00000000000097,710.0000000000032,720.0000000000032,510.0000000000023
-40.00000000000018,-20.00000000000009,40.00000000000018,10.000000000000044,-40.00000000000018,-10.000000000000044,80.00000000000036,90.0000000000004,220.00000000000097,710.0000000000032,730.0000000000033,510.0000000000023
-40.00000000000018,-0.0,70.00000000000031,10.000000000000044,-60.00000000000027,10.000000000000044,80.00000000000036,100.00000000000044,230.00000000000102,720.0000000000032,730.0000000000033,520.0000000000023
-30.000000000000135,20.00000000000009,80.00000000000036,-10.000000000000044,-60.00000000000027,20.00000000000009,90.0000000000004,100.00000000000044,230.00000000000102,720.0000000000032,730.0000000000033,520.0000000000023
10.000000000000044,40.00000000000018,50.00000000000022,-40.00000000000018,-20.00000000000009,20.00000000000009,90.0000000000004,110.00000000000048,230.00000000000102,720.0000000000032,730.0000000000033,520.0000000000023
80.00000000000036,60.00000000000027,-10.000000000000044,-80.00000000000036,50.00000000000022,-0.0,90.0000000000004,110.00000000000048,230.00000000000102,720.0000000000032,730.0000000000033,520.0000000000023
190.00000000000085,70.00000000000031,-120.00000000000054,-130.00000000000057,150.00000000000065,-60.00000000000027,90.0000000000004,120.00000000000054,230.00000000000102,720.0000000000032,730.0000000000033,520.0000000000023
320.0000000000014,60.00000000000027,-270.0000000000012,-180.0000000000008,290.0000000000013,-140.00000000000063,90.0000000000004,120.00000000000054,230.00000000000102,710.0000000000032,730.0000000000033,520.0000000000023
440.00000000000193,40.00000000000018,-440.00000000000193,-220.00000000000097,430.00000000000193,-240.00000000000108,90.0000000000004,130.00000000000057,220.00000000000097,710.0000000000032,730.0000000000033,520.0000000000023
530.0000000000024,-0.0,-580.0000000000026,-250.0000000000011,550.0000000000024,-340.00000000000153,90.0000000000004,130.00000000000057,220.00000000000097,710.0000000000032,730.0000000000033,520.0000000000023
580.0000000000026,-50.00000000000022,-690.0000000000031,-230.00000000000102,630.0000000000028,-430.00000000000193,90.0000000000004,140.00000000000063,220.00000000000097,710.0000000000032,720.0000000000032,520.0000000000023
570.0000000000025,-110.00000000000048,-750.0000000000033,-200.00000000000088,670.000000000003,-490.00000000000216,100.00000000000044,140.00000000000063,220.00000000000097,710.0000000000032,730.0000000000033,520.0000000000023
520.0000000000023,-180.0000000000008,-770.0000000000034,-150.00000000000065,640.0000000000028,-530.0000000000024,100.00000000000044,150.00000000000065,220.00000000000097,700.0000000000031,720.0000000000032,520.0000000000023
450.000000000002,-240.00000000000108,-740.0000000000033,-90.0000000000004,590.0000000000026,-540.0000000000024,90.0000000000004,160.0000000000007,220.00000000000097,700.0000000000031,720.0000000000032,510.0000000000023
370.00000000000165,-290.0000000000013,-690.0000000000031,-20.00000000000009,520.0000000000023,-540.0000000000024,90.0000000000004,160.0000000000007,220.00000000000097,700.0000000000031,720.0000000000032,510.0000000000023
280.00000000000125,-320.0000000000014,-610.0000000000027,40.00000000000018,440.00000000000193,-510.0000000000023,90.0000000000004,160.0000000000007,210.00000000000094,700.0000000000031,720.0000000000032,510.0000000000023
180.0000000000008,-340.00000000000153,-520.0000000000023,80.00000000000036,340.00000000000153,-460.00000000000205,90.0000000000004,170.00000000000077,210.00000000000094,700.0000000000031,720.0000000000032,510.0000000000023
100.00000000000044,-330.0000000000015,-420.0000000000019,110.00000000000048,250.0000000000011,-400.00000000000176,80.00000000000036,170.00000000000077,210.00000000000094,700.0000000000031,720.0000000000032,520.0000000000023
40.00000000000018,-310.00000000000136,-320.0000000000014,120.00000000000054,180.0000000000008,-330.0000000000015,80.00000000000036,180.0000000000008,210.00000000000094,700.0000000000031,720.0000000000032,520.0000000000023
-0.0,-280.00000000000125,-240.00000000000108,120.00000000000054,120.00000000000054,-270.0000000000012,80.00000000000036,180.0000000000008,210.00000000000094,700.0000000000031,730.0000000000033,520.0000000000023
-20.00000000000009,-240.00000000000108,-180.0000000000008,100.00000000000044,80.00000000000036,-210.00000000000094,80.00000000000036,190.00000000000085,210.00000000000094,700.0000000000031,730.0000000000033,530.0000000000024
-20.00000000000009,-200.00000000000088,-140.00000000000063,80.00000000000036,60.00000000000027,-170.00000000000077,80.00000000000036,190.00000000000085,210.00000000000094,700.0000000000031,730.0000000000033,530.0000000000024
-10.000000000000044,-160.0000000000007,-110.00000000000048,60.00000000000027,50.00000000000022,-140.00000000000063,80.00000000000036,200.00000000000088,210.00000000000094,700.0000000000031,740.0000000000033,540.0000000000024
-0.0,-120.00000000000054,-90.0000000000004,40.00000000000018,40.00000000000018,-120.00000000000054,80.00000000000036,200.00000000000088,210.00000000000094,700.0000000000031,740.0000000000033,540.0000000000024
-0.0,-90.0000000000004,-60.00000000000027,30.000000000000135,30.000000000000135,-90.0000000000004,70.00000000000031,210.00000000000094,210.00000000000094,700.0000000000031,750.0000000000033,540.0000000000024
-10.000000000000044,-70.00000000000031,-40.00000000000018,30.000000000000135,10.000000000000044,-70.00000000000031,60.00000000000027,200.00000000000088,220.00000000000097,710.0000000000032,750.0000000000033,550.0000000000024
-10.000000000000044,-50.00000000000022,-30.000000000000135,20.00000000000009,10.000000000000044,-60.00000000000027,60.00000000000027,200.00000000000088,220.00000000000097,710.0000000000032,750.0000000000033,550.0000000000024
-0.0,-50.00000000000022,-30.000000000000135,20.00000000000009,10.000000000000044,-60.00000000000027,60.00000000000027,190.00000000000085,220.00000000000097,710.0000000000032,750.0000000000033,550.0000000000024
-0.0,-40.00000000000018,-20.00000000000009,20.00000000000009,10.000000000000044,-50.00000000000022,50.00000000000022,190.00000000000085,220.00000000000097,720.0000000000032,760.0000000000034,560.0000000000025
-0.0,-30.000000000000135,-20.00000000000009,10.000000000000044,10.000000000000044,-50.00000000000022,50.00000000000022,180.0000000000008,230.00000000000102,720.0000000000032,760.0000000000034,560.0000000000025
-0.0,-30.000000000000135,-20.00000000000009,10.000000000000044,10.000000000000044,-50.00000000000022,50.00000000000022,170.00000000000077,230.00000000000102,730.0000000000033,770.0000000000034,560.0000000000025
-0.0,-30.000000000000135,-20.00000000000009,10.000000000000044,10.000000000000044,-40.00000000000018,50.00000000000022,170.00000000000077,240.00000000000108,730.0000000000033,770.0000000000034,570.0000000000025
-0.0,-20.00000000000009,-20.00000000000009,10.000000000000044,10.000000000000044,-40.00000000000018,50.00000000000022,160.0000000000007,240.00000000000108,730.0000000000033,770.0000000000034,570.0000000000025
-0.0,-20.00000000000009,-10.000000000000044,10.000000000000044,10.000000000000044,-40.00000000000018,50.00000000000022,150.00000000000065,250.0000000000011,740.0000000000033,770.0000000000034,570.0000000000025
-0.0,-20.00000000000009,-20.00000000000009,10.000000000000044,10.000000000000044,-40.00000000000018,60.00000000000027,140.00000000000063,250.0000000000011,740.0000000000033,770.0000000000034,570.0000000000025
-0.0,-20.00000000000009,-20.00000000000009,10.000000000000044,10.000000000000044,-40.00000000000018,60.00000000000027,130.00000000000057,250.0000000000011,740.0000000000033,770.0000000000034,560.0000000000025
-0.0,-20.00000000000009,-20.00000000000009,10.000000000000044,10.000000000000044,-40.00000000000018,60.00000000000027,110.00000000000048,250.0000000000011,740.0000000000033,770.0000000000034,560.0000000000025
10.000000000000044,-20.00000000000009,-20.00000000000009,10.000000000000044,10.000000000000044,-40.00000000000018,70.00000000000031,100.00000000000044,250.0000000000011,730.0000000000033,760.0000000000034,550.0000000000024
10.000000000000044,-20.00000000000009,-20.00000000000009,10.000000000000044,10.000000000000044,-40.00000000000018,70.00000000000031,100.00000000000044,250.0000000000011,730.0000000000033,760.0000000000034,550.0000000000024
10.000000000000044,-20.00000000000009,-20.00000000000009,10.000000000000044,10.000000000000044,-40.00000000000018,70.00000000000031,90.0000000000004,250.0000000000011,720.0000000000032,750.0000000000033,540.0000000000024
10.000000000000044,-20.00000000000009,-20.00000000000009,-0.0,10.000000000000044,-40.00000000000018,80.00000000000036,80.00000000000036,250.0000000000011,720.0000000000032,740.0000000000033,540.0000000000024
10.000000000000044,-20.00000000000009,-20.00000000000009,-0.0,10.000000000000044,-40.00000000000018,80.00000000000036,70.00000000000031,240.00000000000108,720.0000000000032,740.0000000000033,530.0000000000024
10.000000000000044,-20.00000000000009,-20.00000000000009,-0.0,10.000000000000044,-40.00000000000018,80.00000000000036,70.00000000000031,240.00000000000108,710.0000000000032,730.0000000000033,520.0000000000023
10.000000000000044,-20.00000000000009,-20.00000000000009,-0.0,20.00000000000009,-40.00000000000018,90.0000000000004,60.00000000000027,240.00000000000108,710.0000000000032,730.0000000000033,520.0000000000023
20.00000000000009,-10.000000000000044,-20.00000000000009,-0.0,20.00000000000009,-40.00000000000018,90.0000000000004,60.00000000000027,240.00000000000108,710.0000000000032,720.0000000000032,510.0000000000023
20.00000000000009,-10.000000000000044,-20.00000000000009,-0.0,20.00000000000009,-40.00000000000018,90.0000000000004,60.00000000000027,230.00000000000102,700.0000000000031,720.0000000000032,510.0000000000023
20.00000000000009,-10.000000000000044,-30.000000000000135,-0.0,20.00000000000009,-40.00000000000018,90.0000000000004,60.00000000000027,230.00000000000102,700.0000000000031,720.0000000000032,510.0000000000023
20.00000000000009,-10.000000000000044,-30.000000000000135,-10.000000000000044,20.00000000000009,-40.00000000000018,80.00000000000036,60.00000000000027,230.00000000000102,700.0000000000031,710.0000000000032,500.0000000000022
20.00000000000009,-10.000000000000044,-30.000000000000135,-10.000000000000044,20.00000000000009,-40.00000000000018,80.00000000000036,60.00000000000027,220.00000000000097,690.0000000000031,710.0000000000032,500.0000000000022
20.00000000000009,-10.000000000000044,-30.000000000000135,-10.000000000000044,20.00000000000009,-40.00000000000018,80.00000000000036,60.00000000000027,220.00000000000097,690.0000000000031,700.0000000000031,490.00000000000216
30.000000000000135,-10.000000000000044,-30.000000000000135,-10.000000000000044,30.000000000000135,-40.00000000000018,80.00000000000036,50.00000000000022,210.00000000000094,680.0000000000031,700.0000000000031,490.00000000000216
30.000000000000135,-10.000000000000044,-30.000000000000135,-10.000000000000044,30.000000000000135,-40.00000000000018,80.00000000000036,50.00000000000022,210.00000000000094,680.0000000000031,690.0000000000031,480.00000000000216
30.000000000000135,-10.000000000000044,-30.000000000000135,-10.000000000000044,30.000000000000135,-40.00000000000018,80.00000000000036,50.00000000000022,210.00000000000094,680.0000000000031,690.0000000000031,480.00000000000216
30.000000000000135,-10.000000000000044,-30.000000000000135,-10.000000000000044,30.000000000000135,-40.00000000000018,80.00000000000036,50.00000000000022,210.00000000000094,670.000000000003,680.0000000000031,470.0000000000021
20.00000000000009,-10.000000000000044,-30.000000000000135,-10.000000000000044,20.00000000000009,-40.00000000000018,80.00000000000036,50.00000000000022,210.00000000000094,670.000000000003,680.0000000000031,470.0000000000021
20.00000000000009,-10.000000000000044,-20.00000000000009,-10.000000000000044,20.00000000000009,-40.00000000000018,80.00000000000036,40.00000000000018,200.00000000000088,670.000000000003,680.0000000000031,460.00000000000205
30.000000000000135,-0.0,-20.00000000000009,-10.000000000000044,30.000000000000135,-40.00000000000018,80.00000000000036,40.00000000000018,200.00000000000088,670.000000000003,670.000000000003,460.00000000000205
30.000000000000135,-0.0,-30.000000000000135,-10.000000000000044,30.000000000000135,-40.00000000000018,80.00000000000036,40.00000000000018,200.00000000000088,660.000000000003,670.000000000003,450.000000000002
30.000000000000135,-0.0,-30.000000000000135,-20.00000000000009,30.000000000000135,-40.00000000000018,80.00000000000036,40.00000000000018,200.00000000000088,660.000000000003,670.000000000003,450.000000000002
30.000000000000135,-0.0,-20.00000000000009,-20.00000000000009,30.000000000000135,-30.000000000000135,80.00000000000036,30.000000000000135,200.00000000000088,660.000000000003,660.000000000003,450.000000000002
40.00000000000018,-0.0,-30.000000000000135,-20.00000000000009,30.000000000000135,-30.000000000000135,80.00000000000036,30.000000000000135,200.00000000000088,660.000000000003,660.000000000003,440.00000000000193
40.00000000000018,10.000000000000044,-30.000000000000135,-20.00000000000009,30.000000000000135,-30.000000000000135,80.00000000000036,30.000000000000135,200.00000000000088,660.000000000003,660.000000000003,440.00000000000193
40.00000000000018,10.000000000000044,-20.00000000000009,-30.000000000000135,30.000000000000135,-30.000000000000135,80.00000000000036,30.000000000000135,200.00000000000088,660.000000000003,660.000000000003,440.00000000000193
50.00000000000022,10.000000000000044,-20.00000000000009,-30.000000000000135,30.000000000000135,-30.000000000000135,80.00000000000036,40.00000000000018,200.00000000000088,660.000000000003,660.000000000003,440.00000000000193
40.00000000000018,20.00000000000009,-20.00000000000009,-30.000000000000135,30.000000000000135,-30.000000000000135,80.00000000000036,40.00000000000018,200.00000000000088,660.000000000003,660.000000000003,440.00000000000193
50.00000000000022,20.00000000000009,-20.00000000000009,-30.000000000000135,30.000000000000135,-30.000000000000135,80.00000000000036,40.00000000000018,200.00000000000088,660.000000000003,660.000000000003,440.00000000000193
50.00000000000022,20.00000000000009,-20.00000000000009,-40.00000000000018,40.00000000000018,-30.000000000000135,80.00000000000036,40.00000000000018,200.00000000000088,650.0000000000028,660.000000000003,440.00000000000193
50.00000000000022,20.00000000000009,-30.000000000000135,-40.00000000000018,40.00000000000018,-30.000000000000135,80.00000000000036,50.00000000000022,200.00000000000088,650.0000000000028,660.000000000003,440.00000000000193
50.00000000000022,20.00000000000009,-20.00000000000009,-40.00000000000018,40.00000000000018,-20.00000000000009,80.00000000000036,50.00000000000022,200.00000000000088,650.0000000000028,650.0000000000028,440.00000000000193
60.00000000000027,30.000000000000135,-20.00000000000009,-50.00000000000022,40.00000000000018,-20.00000000000009,80.00000000000036,50.00000000000022,200.00000000000088,650.0000000000028,650.0000000000028,440.00000000000193
70.00000000000031,40.00000000000018,-30.000000000000135,-60.00000000000027,50.00000000000022,-20.00000000000009,80.00000000000036,50.00000000000022,200.00000000000088,650.0000000000028,650.0000000000028,440.00000000000193
80.00000000000036,40.00000000000018,-30.000000000000135,-70.00000000000031,60.00000000000027,-20.00000000000009,80.00000000000036,40.00000000000018,200.00000000000088,650.0000000000028,650.0000000000028,440.00000000000193
90.0000000000004,50.00000000000022,-30.000000000000135,-70.00000000000031,60.00000000000027,-10.000000000000044,80.00000000000036,40.00000000000018,200.00000000000088,650.0000000000028,640.0000000000028,440.00000000000193
100.00000000000044,50.00000000000022,-40.00000000000018,-80.00000000000036,70.00000000000031,-10.000000000000044,80.00000000000036,40.00000000000018,200.00000000000088,650.0000000000028,650.0000000000028,440.00000000000193
110.00000000000048,60.00000000000027,-40.00000000000018,-90.0000000000004,70.00000000000031,-10.000000000000044,80.00000000000036,40.00000000000018,200.00000000000088,640.0000000000028,650.0000000000028,440.00000000000193
110.00000000000048,60.00000000000027,-40.00000000000018,-90.0000000000004,70.00000000000031,-10.000000000000044,70.00000000000031,40.00000000000018,200.00000000000088,640.0000000000028,640.0000000000028,440.00000000000193
120.00000000000054,60.00000000000027,-40.00000000000018,-100.00000000000044,80.00000000000036,-10.000000000000044,70.00000000000031,40.00000000000018,200.00000000000088,640.0000000000028,650.0000000000028,440.00000000000193
130.00000000000057,70.00000000000031,-40.00000000000018,-110.00000000000048,80.00000000000036,-10.000000000000044,70.00000000000031,40.00000000000018,200.00000000000088,640.0000000000028,650.0000000000028,440.00000000000193
140.00000000000063,80.00000000000036,-50.00000000000022,-110.00000000000048,90.0000000000004,-0.0,60.00000000000027,40.00000000000018,200.00000000000088,640.0000000000028,640.0000000000028,440.00000000000193
140.00000000000063,80.00000000000036,-50.00000000000022,-110.00000000000048,90.0000000000004,-0.0,60.00000000000027,40.00000000000018,200.00000000000088,640.0000000000028,640.0000000000028,440.00000000000193
140.00000000000063,90.0000000000004,-40.00000000000018,-120.00000000000054,90.0000000000004,-0.0,60.00000000000027,40.00000000000018,200.00000000000088,640.0000000000028,640.0000000000028,440.00000000000193
150.00000000000065,90.0000000000004,-40.00000000000018,-120.00000000000054,90.0000000000004,-0.0,60.00000000000027,30.000000000000135,200.00000000000088,640.0000000000028,640.0000000000028,440.00000000000193
140.00000000000063,100.00000000000044,-40.00000000000018,-120.00000000000054,90.0000000000004,-0.0,60.00000000000027,30.000000000000135,200.00000000000088,640.0000000000028,640.0000000000028,440.00000000000193
140.00000000000063,100.00000000000044,-40.00000000000018,-120.00000000000054,90.0000000000004,-0.0,60.00000000000027,30.000000000000135,200.00000000000088,640.0000000000028,640.0000000000028,440.00000000000193
140.00000000000063,100.00000000000044,-40.00000000000018,-120.00000000000054,90.0000000000004,-0.0,60.00000000000027,40.00000000000018,200.00000000000088,640.0000000000028,640.0000000000028,440.00000000000193
130.00000000000057,100.00000000000044,-40.00000000000018,-110.00000000000048,80.00000000000036,-0.0,60.00000000000027,40.00000000000018,200.00000000000088,640.0000000000028,640.0000000000028,440.00000000000193
120.00000000000054,90.0000000000004,-30.000000000000135,-100.00000000000044,70.00000000000031,-0.0,60.00000000000027,40.00000000000018,200.00000000000088,640.0000000000028,640.0000000000028,440.00000000000193
110.00000000000048,80.00000000000036,-30.000000000000135,-100.00000000000044,70.00000000000031,-0.0,60.00000000000027,50.00000000000022,200.00000000000088,640.0000000000028,640.0000000000028,440.00000000000193
100.00000000000044,80.00000000000036,-30.000000000000135,-90.0000000000004,60.00000000000027,-0.0,60.00000000000027,50.00000000000022,200.00000000000088,640.0000000000028,640.0000000000028,440.00000000000193
90.0000000000004,70.00000000000031,-20.00000000000009,-80.00000000000036,50.00000000000022,-0.0,60.00000000000027,50.00000000000022,200.00000000000088,640.0000000000028,640.0000000000028,440.00000000000193
80.00000000000036,60.00000000000027,-10.000000000000044,-70.00000000000031,40.00000000000018,-0.0,60.00000000000027,50.00000000000022,200.00000000000088,640.0000000000028,640.0000000000028,440.00000000000193
70.00000000000031,60.00000000000027,-10.000000000000044,-70.00000000000031,40.00000000000018,-0.0,70.00000000000031,50.00000000000022,210.00000000000094,650.0000000000028,640.0000000000028,440.00000000000193
60.00000000000027,50.00000000000022,-10.000000000000044,-60.00000000000027,30.000000000000135,-0.0,70.00000000000031,50.00000000000022,210.00000000000094,650.0000000000028,640.0000000000028,440.00000000000193
50.00000000000022,50.00000000000022,-0.0,-50.00000000000022,30.000000000000135,-0.0,70.00000000000031,50.00000000000022,210.00000000000094,650.0000000000028,640.0000000000028,440.00000000000193
50.00000000000022,40.00000000000018,-0.0,-40.00000000000018,20.00000000000009,-10.000000000000044,80.00000000000036,50.00000000000022,230.00000000000102,660.000000000003,650.0000000000028,440.00000000000193
40.00000000000018,40.00000000000018,-0.0,-40.00000000000018,20.00000000000009,-10.000000000000044,90.0000000000004,60.00000000000027,230.00000000000102,660.000000000003,650.0000000000028,440.00000000000193
40.00000000000018,30.000000000000135,-10.000000000000044,-30.000000000000135,20.00000000000009,-10.000000000000044,90.0000000000004,60.00000000000027,230.00000000000102,660.000000000003,660.000000000003,440.00000000000193
30.000000000000135,30.000000000000135,-10.000000000000044,-30.000000000000135,20.00000000000009,-20.00000000000009,90.0000000000004,60.00000000000027,240.00000000000108,670.000000000003,660.000000000003,440.00000000000193
30.000000000000135,20.00000000000009,-10.000000000000044,-20.00000000000009,20.00000000000009,-20.00000000000009,100.00000000000044,60.00000000000027,250.0000000000011,680.0000000000031,670.000000000003,440.00000000000193
30.000000000000135,20.00000000000009,-10.000000000000044,-20.00000000000009,20.00000000000009,-20.00000000000009,90.0000000000004,70.00000000000031,260.00000000000114,680.0000000000031,670.000000000003,450.000000000002
20.00000000000009,20.00000000000009,-0.0,-20.00000000000009,10.000000000000044,-20.00000000000009,90.0000000000004,70.00000000000031,260.00000000000114,690.0000000000031,670.000000000003,450.000000000002
20.00000000000009,10.000000000000044,-0.0,-10.000000000000044,10.000000000000044,-20.00000000000009,80.00000000000036,70.00000000000031,270.0000000000012,700.0000000000031,680.0000000000031,460.00000000000205
20.00000000000009,10.000000000000044,-10.000000000000044,-10.000000000000044,10.000000000000044,-20.00000000000009,70.00000000000031,70.00000000000031,270.0000000000012,700.0000000000031,690.0000000000031,470.0000000000021
10.000000000000044,10.000000000000044,-0.0,-10.000000000000044,10.000000000000044,-20.00000000000009,50.00000000000022,70.00000000000031,270.0000000000012,700.0000000000031,700.0000000000031,480.00000000000216
10.000000000000044,-0.0,-0.0,-10.000000000000044,10.000000000000044,-20.00000000000009,40.00000000000018,70.00000000000031,270.0000000000012,700.0000000000031,700.0000000000031,480.00000000000216
10.000000000000044,-0.0,-0.0,-10.000000000000044,10.000000000000044,-20.00000000000009,30.000000000000135,70.00000000000031,260.00000000000114,690.0000000000031,700.0000000000031,490.00000000000216
10.000000000000044,-0.0,-0.0,-10.000000000000044,10.000000000000044,-20.00000000000009,30.000000000000135,60.00000000000027,250.0000000000011,680.0000000000031,700.0000000000031,490.00000000000216
10.000000000000044,-0.0,-0.0,-10.000000000000044,10.000000000000044,-20.00000000000009,20.00000000000009,60.00000000000027,240.00000000000108,670.000000000003,690.0000000000031,480.00000000000216
10.000000000000044,-0.0,-0.0,-0.0,-0.0,-20.00000000000009,20.00000000000009,50.00000000000022,230.00000000000102,660.000000000003,680.0000000000031,470.0000000000021
10.000000000000044,-0.0,-10.000000000000044,-0.0,10.000000000000044,-30.000000000000135,20.00000000000009,40.00000000000018,220.00000000000097,640.0000000000028,670.000000000003,460.00000000000205
10.000000000000044,-0.0,-10.000000000000044,-0.0,10.000000000000044,-30.000000000000135,30.000000000000135,40.00000000000018,200.00000000000088,630.0000000000028,650.0000000000028,440.00000000000193
10.000000000000044,-0.0,-0.0,-0.0,-0.0,-20.00000000000009,30.000000000000135,30.000000000000135,200.00000000000088,620.0000000000027,640.0000000000028,440.00000000000193
-0.0,-0.0,-0.0,-0.0,-0.0,-20.00000000000009,30.000000000000135,30.000000000000135,200.00000000000088,610.0000000000027,620.0000000000027,430.00000000000193
-0.0,-0.0,-0.0,-0.0,-0.0,-30.000000000000135,30.000000000000135,20.00000000000009,190.00000000000085,600.0000000000026,610.0000000000027,420.0000000000019
-0.0,-0.0,-0.0,-0.0,-0.0,-30.000000000000135,30.000000000000135,20.00000000000009,190.00000000000085,590.0000000000026,600.0000000000026,400.00000000000176
-0.0,-0.0,-0.0,-0.0,-0.0,-20.00000000000009,40.00000000000018,10.000000000000044,180.0000000000008,580.0000000000026,590.0000000000026,390.0000000000017
-0.0,-0.0,-0.0,-0.0,-0.0,-30.000000000000135,40.00000000000018,10.000000000000044,180.0000000000008,580.0000000000026,580.0000000000026,390.0000000000017
-0.0,-10.000000000000044,-0.0,-0.0,-0.0,-30.000000000000135,40.00000000000018,10.000000000000044,170.00000000000077,570.0000000000025,580.0000000000026,380.0000000000017
-0.0,-10.000000000000044,-0.0,-0.0,-0.0,-30.000000000000135,40.00000000000018,10.000000000000044,170.00000000000077,570.0000000000025,570.0000000000025,380.0000000000017
-0.0,-10.000000000000044,-0.0,-0.0,-0.0,-30.000000000000135,40.00000000000018,10.000000000000044,170.00000000000077,570.0000000000025,570.0000000000025,370.00000000000165
-0.0,-10.000000000000044,-0.0,-0.0,-0.0,-30.000000000000135,40.00000000000018,10.000000000000044,170.00000000000077,570.0000000000025,560.0000000000025,370.00000000000165
-0.0,-10.000000000000044,-0.0,-0.0,-0.0,-30.000000000000135,40.00000000000018,10.000000000000044,170.00000000000077,570.0000000000025,560.0000000000025,370.00000000000165
-0.0,-0.0,-0.0,-0.0,-0.0,-30.000000000000135,40.00000000000018,10.000000000000044,170.00000000000077,570.0000000000025,560.0000000000025,370.00000000000165
-0.0,-0.0,-0.0,-0.0,-0.0,-30.000000000000135,50.00000000000022,10.000000000000044,170.00000000000077,570.0000000000025,550.0000000000024,370.00000000000165
-0.0,-0.0,-0.0,-0.0,-0.0,-30.000000000000135,50.00000000000022,20.00000000000009,160.0000000000007,560.0000000000025,550.0000000000024,370.00000000000165
10.000000000000044,-0.0,-0.0,-0.0,-0.0,-30.000000000000135,50.00000000000022,20.00000000000009,160.0000000000007,560.0000000000025,550.0000000000024,360.0000000000016
10.000000000000044,-0.0,-0.0,-0.0,-0.0,-20.00000000000009,50.00000000000022,20.00000000000009,160.0000000000007,560.0000000000025,550.0000000000024,360.0000000000016
10.000000000000044,-0.0,-0.0,-0.0,-0.0,-20.00000000000009,50.00000000000022,20.00000000000009,160.0000000000007,560.0000000000025,550.0000000000024,360.0000000000016
10.000000000000044,-0.0,-0.0,-0.0,-0.0,-20.00000000000009,50.00000000000022,20.00000000000009,160.0000000000007,560.0000000000025,550.0000000000024,360.0000000000016
-0.0,-0.0,-0.0,-0.0,-0.0,-20.00000000000009,50.00000000000022,20.00000000000009,160.0000000000007,550.0000000000024,550.0000000000024,360.0000000000016
-0.0,-0.0,-0.0,-0.0,-0.0,-20.00000000000009,50.00000000000022,20.00000000000009,160.0000000000007,560.0000000000025,540.0000000000024,360.0000000000016
-0.0,-0.0,-0.0,-0.0,-0.0,-20.00000000000009,50.00000000000022,20.00000000000009,160.0000000000007,560.0000000000025,540.0000000000024,360.0000000000016
-0.0,-0.0,10.000000000000044,-0.0,-0.0,-20.00000000000009,60.00000000000027,20.00000000000009,160.0000000000007,560.0000000000025,540.0000000000024,360.0000000000016
-0.0,-0.0,10.000000000000044,-0.0,-0.0,-20.00000000000009,60.00000000000027,20.00000000000009,170.00000000000077,560.0000000000025,540.0000000000024,360.0000000000016
10.000000000000044,10.000000000000044,10.000000000000044,-10.000000000000044,-0.0,-20.00000000000009,60.00000000000027,20.00000000000009,180.0000000000008,570.0000000000025,550.0000000000024,360.0000000000016
10.000000000000044,10.000000000000044,10.000000000000044,-10.000000000000044,-0.0,-10.000000000000044,70.00000000000031,20.00000000000009,210.00000000000094,600.0000000000026,560.0000000000025,370.00000000000165
10.000000000000044,10.000000000000044,10.000000000000044,-10.000000000000044,-0.0,-10.000000000000044,80.00000000000036,30.000000000000135,250.0000000000011,650.0000000000028,580.0000000000026,400.00000000000176
10.000000000000044,10.000000000000044,10.000000000000044,-10.000000000000044,-0.0,-10.000000000000044,100.00000000000044,60.00000000000027,310.00000000000136,720.0000000000032,630.0000000000028,430.00000000000193
20.00000000000009,10.000000000000044,-0.0,-20.00000000000009,-0.0,-10.000000000000044,110.00000000000048,120.00000000000054,390.0000000000017,820.0000000000036,700.0000000000031,490.00000000000216
20.00000000000009,20.00000000000009,-0.0,-20.00000000000009,-0.0,-10.000000000000044,100.00000000000044,200.00000000000088,490.00000000000216,940.0000000000042,800.0000000000035,590.0000000000026
10.000000000000044,20.00000000000009,10.000000000000044,-10.000000000000044,-0.0,-10.000000000000044,70.00000000000031,300.0000000000013,600.0000000000026,1070.0000000000048,930.0000000000041,710.0000000000032
20.00000000000009,10.000000000000044,-0.0,-10.000000000000044,10.000000000000044,-20.00000000000009,30.000000000000135,410.0000000000018,690.0000000000031,1180.0000000000052,1060.0000000000048,830.0000000000036
10.000000000000044,10.000000000000044,-0.0,-10.000000000000044,-0.0,-20.00000000000009,-20.00000000000009,500.0000000000022,740.0000000000033,1240.0000000000055,1160.0000000000052,920.0000000000041
10.000000000000044,10.000000000000044,10.000000000000044,-10.000000000000044,-0.0,-10.000000000000044,-80.00000000000036,560.0000000000025,730.0000000000033,1220.0000000000055,1220.0000000000055,960.0000000000043
10.000000000000044,10.000000000000044,10.000000000000044,-10.000000000000044,-0.0,-20.00000000000009,-140.00000000000063,540.0000000000024,650.0000000000028,1130.000000000005,1180.0000000000052,930.0000000000041
10.000000000000044,10.000000000000044,-0.0,-10.000000000000044,-0.0,-20.00000000000009,-190.00000000000085,460.00000000000205,500.0000000000022,970.0000000000043,1090.0000000000048,840.0000000000038
-0.0,10.000000000000044,10.000000000000044,-10.000000000000044,-10.000000000000044,-20.00000000000009,-230.00000000000102,320.0000000000014,310.00000000000136,760.0000000000034,920.0000000000041,680.0000000000031
-0.0,10.000000000000044,10.000000000000044,-0.0,-0.0,-10.000000000000044,-260.00000000000114,140.00000000000063,110.00000000000048,540.0000000000024,720.0000000000032,500.0000000000022
10.000000000000044,10.000000000000044,10.000000000000044,-10.000000000000044,-0.0,-20.00000000000009,-290.0000000000013,-50.00000000000022,-80.00000000000036,340.00000000000153,520.0000000000023,320.0000000000014
10.000000000000044,10.000000000000044,10.000000000000044,-10.000000000000044,-0.0,-10.000000000000044,-300.0000000000013,-220.00000000000097,-230.00000000000102,180.0000000000008,340.00000000000153,170.00000000000077
10.000000000000044,10.000000000000044,10.000000000000044,-10.000000000000044,-0.0,-10.000000000000044,-300.0000000000013,-350.00000000000153,-330.0000000000015,70.00000000000031,190.00000000000085,40.00000000000018
10.000000000000044,20.00000000000009,10.000000000000044,-10.000000000000044,-0.0,-10.000000000000044,-280.00000000000125,-440.00000000000193,-380.0000000000017,20.00000000000009,100.00000000000044,-50.00000000000022
10.000000000000044,10.000000000000044,10.000000000000044,-10.000000000000044,-10.000000000000044,-10.000000000000044,-250.0000000000011,-470.0000000000021,-360.0000000000016,30.000000000000135,50.00000000000022,-90.0000000000004
-0.0,10.000000000000044,10.000000000000044,-10.000000000000044,-10.000000000000044,-10.000000000000044,-210.00000000000094,-450.000000000002,-310.00000000000136,80.00000000000036,70.00000000000031,-70.00000000000031
-0.0,20.00000000000009,20.00000000000009,-10.000000000000044,-10.000000000000044,-10.000000000000044,-170.00000000000077,-390.0000000000017,-240.00000000000108,150.00000000000065,120.00000000000054,-40.00000000000018
-0.0,20.00000000000009,20.00000000000009,-10.000000000000044,-10.000000000000044,-10.000000000000044,-130.00000000000057,-310.00000000000136,-150.00000000000065,240.00000000000108,180.0000000000008,20.00000000000009
-0.0,20.00000000000009,20.00000000000009,-10.000000000000044,-10.000000000000044,-0.0,-90.0000000000004,-220.00000000000097,-60.00000000000027,330.0000000000015,260.00000000000114,90.0000000000004
-0.0,20.00000000000009,30.000000000000135,-20.00000000000009,-10.000000000000044,-0.0,-50.00000000000022,-130.00000000000057,10.000000000000044,390.0000000000017,330.0000000000015,150.00000000000065
10.000000000000044,30.000000000000135,40.00000000000018,-20.00000000000009,-20.00000000000009,-0.0,-10.000000000000044,-60.00000000000027,60.00000000000027,440.00000000000193,380.0000000000017,200.00000000000088
10.000000000000044,40.00000000000018,40.00000000000018,-30.000000000000135,-20.00000000000009,10.000000000000044,20.00000000000009,-10.000000000000044,100.00000000000044,470.0000000000021,420.0000000000019,230.00000000000102
10.000000000000044,50.00000000000022,50.00000000000022,-40.00000000000018,-20.00000000000009,20.00000000000009,40.00000000000018,-0.0,120.00000000000054,490.00000000000216,440.00000000000193,250.0000000000011
20.00000000000009,60.00000000000027,60.00000000000027,-50.00000000000022,-20.00000000000009,30.000000000000135,50.00000000000022,20.00000000000009,130.00000000000057,500.0000000000022,460.00000000000205,270.0000000000012
20.00000000000009,70.00000000000031,70.00000000000031,-60.00000000000027,-30.000000000000135,50.00000000000022,60.00000000000027,30.000000000000135,140.00000000000063,510.0000000000023,470.0000000000021,280.00000000000125
30.000000000000135,90.0000000000004,80.00000000000036,-70.00000000000031,-30.000000000000135,60.00000000000027,60.00000000000027,40.00000000000018,140.00000000000063,510.0000000000023,470.0000000000021,280.00000000000125
30.000000000000135,100.00000000000044,90.0000000000004,-80.00000000000036,-30.000000000000135,70.00000000000031,60.00000000000027,40.00000000000018,150.00000000000065,520.0000000000023,480.00000000000216,280.00000000000125
50.00000000000022,120.00000000000054,90.0000000000004,-100.00000000000044,-20.00000000000009,80.00000000000036,60.00000000000027,50.00000000000022,160.0000000000007,520.0000000000023,480.00000000000216,290.0000000000013
60.00000000000027,130.00000000000057,100.00000000000044,-110.00000000000048,-20.00000000000009,90.0000000000004,70.00000000000031,50.00000000000022,160.0000000000007,520.0000000000023,480.00000000000216,290.0000000000013
70.00000000000031,150.00000000000065,90.0000000000004,-120.00000000000054,-10.000000000000044,90.0000000000004,60.00000000000027,60.00000000000027,160.0000000000007,520.0000000000023,480.00000000000216,290.0000000000013
90.0000000000004,160.0000000000007,80.00000000000036,-130.00000000000057,-0.0,90.0000000000004,60.00000000000027,60.00000000000027,160.0000000000007,530.0000000000024,490.00000000000216,290.0000000000013
100.00000000000044,160.0000000000007,80.00000000000036,-140.00000000000063,10.000000000000044,90.0000000000004,60.00000000000027,70.00000000000031,160.0000000000007,530.0000000000024,490.00000000000216,300.0000000000013
110.00000000000048,180.0000000000008,70.00000000000031,-140.00000000000063,20.00000000000009,90.0000000000004,50.00000000000022,70.00000000000031,160.0000000000007,530.0000000000024,490.00000000000216,300.0000000000013
110.00000000000048,170.00000000000077,60.00000000000027,-140.00000000000063,20.00000000000009,80.00000000000036,50.00000000000022,70.00000000000031,160.0000000000007,530.0000000000024,490.00000000000216,300.0000000000013
100.00000000000044,170.00000000000077,60.00000000000027,-130.00000000000057,20.00000000000009,80.00000000000036,60.00000000000027,80.00000000000036,160.0000000000007,530.0000000000024,490.00000000000216,290.0000000000013
90.0000000000004,160.0000000000007,50.00000000000022,-120.00000000000054,20.00000000000009,60.00000000000027,60.00000000000027,80.00000000000036,160.0000000000007,530.0000000000024,490.00000000000216,290.0000000000013
80.00000000000036,140.00000000000063,50.00000000000022,-110.00000000000048,20.00000000000009,50.00000000000022,50.00000000000022,80.00000000000036,160.0000000000007,530.0000000000024,490.00000000000216,290.0000000000013
60.00000000000027,120.00000000000054,40.00000000000018,-90.0000000000004,10.000000000000044,40.00000000000018,50.00000000000022,90.0000000000004,160.0000000000007,520.0000000000023,490.00000000000216,290.0000000000013
40.00000000000018,100.00000000000044,40.00000000000018,-70.00000000000031,-0.0,30.000000000000135,50.00000000000022,80.00000000000036,160.0000000000007,520.0000000000023,480.00000000000216,290.0000000000013
20.00000000000009,80.00000000000036,40.00000000000018,-50.00000000000022,-10.000000000000044,10.000000000000044,50.00000000000022,80.00000000000036,160.0000000000007,520.0000000000023,480.00000000000216,290.0000000000013
10.000000000000044,60.00000000000027,40.00000000000018,-30.000000000000135,-20.00000000000009,-0.0,50.00000000000022,80.00000000000036,160.0000000000007,520.0000000000023,480.00000000000216,280.00000000000125
-10.000000000000044,40.00000000000018,40.00000000000018,-10.000000000000044,-20.00000000000009,-0.0,50.00000000000022,80.00000000000036,160.0000000000007,520.0000000000023,480.00000000000216,280.00000000000125
-20.00000000000009,20.00000000000009,30.000000000000135,-0.0,-20.00000000000009,-10.000000000000044,40.00000000000018,80.00000000000036,160.0000000000007,520.0000000000023,480.00000000000216,280.00000000000125
-20.00000000000009,10.000000000000044,20.00000000000009,10.000000000000044,-20.00000000000009,-10.000000000000044,40.00000000000018,80.00000000000036,160.0000000000007,510.0000000000023,470.0000000000021,280.00000000000125
-20.00000000000009,-0.0,10.000000000000044,10.000000000000044,-20.00000000000009,-20.00000000000009,40.00000000000018,80.00000000000036,160.0000000000007,510.0000000000023,470.0000000000021,280.00000000000125
-30.000000000000135,-10.000000000000044,10.000000000000044,20.00000000000009,-20.00000000000009,-30.000000000000135,40.00000000000018,80.00000000000036,160.0000000000007,510.0000000000023,470.0000000000021,270.0000000000012
-30.000000000000135,-20.00000000000009,10.000000000000044,20.00000000000009,-20.00000000000009,-30.000000000000135,40.00000000000018,80.00000000000036,160.0000000000007,510.0000000000023,470.0000000000021,270.0000000000012
-30.000000000000135,-20.00000000000009,-0.0,20.00000000000009,-20.00000000000009,-40.00000000000018,40.00000000000018,80.00000000000036,160.0000000000007,510.0000000000023,460.00000000000205,270.0000000000012
-30.000000000000135,-30.000000000000135,-0.0,30.000000000000135,-20.00000000000009,-40.00000000000018,40.00000000000018,80.00000000000036,160.0000000000007,510.0000000000023,460.00000000000205,270.0000000000012
-30.000000000000135,-30.000000000000135,-0.0,30.000000000000135,-20.00000000000009,-40.00000000000018,40.00000000000018,80.00000000000036,160.0000000000007,510.0000000000023,460.00000000000205,270.0000000000012
-30.000000000000135,-40.00000000000018,-0.0,30.000000000000135,-20.00000000000009,-40.00000000000018,40.00000000000018,90.0000000000004,160.0000000000007,510.0000000000023,460.00000000000205,270.0000000000012
-40.00000000000018,-40.00000000000018,-0.0,30.000000000000135,-20.00000000000009,-40.00000000000018,40.00000000000018,90.0000000000004,160.0000000000007,500.0000000000022,460.00000000000205,270.0000000000012
-40.00000000000018,-40.00000000000018,-0.0,40.00000000000018,-20.00000000000009,-40.00000000000018,40.00000000000018,100.00000000000044,160.0000000000007,500.0000000000022,460.00000000000205,270.0000000000012
-40.00000000000018,-40.00000000000018,-0.0,40.00000000000018,-20.00000000000009,-40.00000000000018,40.00000000000018,100.00000000000044,160.0000000000007,500.0000000000022,460.00000000000205,270.0000000000012
-40.00000000000018,-40.00000000000018,-0.0,40.00000000000018,-20.00000000000009,-40.00000000000018,40.00000000000018,100.00000000000044,150.00000000000065,500.0000000000022,460.00000000000205,270.0000000000012
-40.00000000000018,-40.00000000000018,10.000000000000044,40.00000000000018,-30.000000000000135,-40.00000000000018,40.00000000000018,110.00000000000048,150.00000000000065,500.0000000000022,450.000000000002,260.00000000000114
-40.00000000000018,-40.00000000000018,10.000000000000044,40.00000000000018,-30.000000000000135,-40.00000000000018,40.00000000000018,110.00000000000048,150.00000000000065,500.0000000000022,450.000000000002,270.0000000000012
-50.00000000000022,-40.00000000000018,10.000000000000044,40.00000000000018,-30.000000000000135,-40.00000000000018,40.00000000000018,120.00000000000054,150.00000000000065,500.0000000000022,450.000000000002,270.0000000000012
-50.00000000000022,-40.00000000000018,10.000000000000044,50.00000000000022,-30.000000000000135,-40.00000000000018,40.00000000000018,120.00000000000054,150.00000000000065,500.0000000000022,450.000000000002,260.00000000000114
-50.00000000000022,-40.00000000000018,10.000000000000044,50.00000000000022,-30.000000000000135,-40.00000000000018,40.00000000000018,130.00000000000057,150.00000000000065,490.00000000000216,450.000000000002,260.00000000000114
-60.00000000000027,-40.00000000000018,20.00000000000009,50.00000000000022,-40.00000000000018,-40.00000000000018,40.00000000000018,130.00000000000057,160.0000000000007,490.00000000000216,450.000000000002,270.0000000000012
-60.00000000000027,-40.00000000000018,30.000000000000135,50.00000000000022,-50.00000000000022,-30.000000000000135,40.00000000000018,140.00000000000063,160.0000000000007,500.0000000000022,450.000000000002,270.0000000000012
-60.00000000000027,-40.00000000000018,50.00000000000022,40.00000000000018,-60.00000000000027,-10.000000000000044,50.00000000000022,140.00000000000063,160.0000000000007,500.0000000000022,450.000000000002,270.0000000000012
-70.00000000000031,-20.00000000000009,80.00000000000036,30.000000000000135,-80.00000000000036,-0.0,50.00000000000022,150.00000000000065,160.0000000000007,500.0000000000022,450.000000000002,270.0000000000012
-80.00000000000036,-10.000000000000044,110.00000000000048,30.000000000000135,-100.00000000000044,30.000000000000135,40.00000000000018,160.0000000000007,160.0000000000007,500.0000000000022,450.000000000002,270.0000000000012
-90.0000000000004,20.00000000000009,130.00000000000057,20.00000000000009,-110.00000000000048,50.00000000000022,40.00000000000018,170.00000000000077,160.0000000000007,500.0000000000022,450.000000000002,270.0000000000012
-70.00000000000031,40.00000000000018,140.00000000000063,-0.0,-110.00000000000048,70.00000000000031,50.00000000000022,170.00000000000077,160.0000000000007,500.0000000000022,450.000000000002,270.0000000000012
-30.000000000000135,60.00000000000027,110.00000000000048,-30.000000000000135,-70.00000000000031,60.00000000000027,50.00000000000022,180.0000000000008,160.0000000000007,490.00000000000216,450.000000000002,280.00000000000125
40.00000000000018,80.00000000000036,50.00000000000022,-70.00000000000031,-10.000000000000044,30.000000000000135,40.00000000000018,180.0000000000008,160.0000000000007,490.00000000000216,450.000000000002,280.00000000000125
140.00000000000063,90.0000000000004,-60.00000000000027,-120.00000000000054,100.00000000000044,-20.00000000000009,40.00000000000018,190.00000000000085,160.0000000000007,490.00000000000216,450.000000000002,280.00000000000125
270.0000000000012,80.00000000000036,-210.00000000000094,-170.00000000000077,230.00000000000102,-100.00000000000044,40.00000000000018,190.00000000000085,150.00000000000065,490.00000000000216,450.000000000002,280.00000000000125
380.0000000000017,50.00000000000022,-360.0000000000016,-200.00000000000088,370.00000000000165,-200.00000000000088,30.000000000000135,190.00000000000085,150.00000000000065,490.00000000000216,450.000000000002,280.00000000000125
470.0000000000021,10.000000000000044,-510.0000000000023,-220.00000000000097,480.00000000000216,-300.0000000000013,30.000000000000135,190.00000000000085,150.00000000000065,490.00000000000216,450.000000000002,280.00000000000125
520.0000000000023,-50.00000000000022,-620.0000000000027,-200.00000000000088,560.0000000000025,-390.0000000000017,20.00000000000009,190.00000000000085,150.00000000000065,490.00000000000216,450.000000000002,280.00000000000125
510.0000000000023,-110.00000000000048,-680.0000000000031,-170.00000000000077,600.0000000000026,-460.00000000000205,20.00000000000009,190.00000000000085,150.00000000000065,490.00000000000216,450.000000000002,280.00000000000125
460.00000000000205,-180.0000000000008,-700.0000000000031,-110.00000000000048,570.0000000000025,-500.0000000000022,10.000000000000044,190.00000000000085,150.00000000000065,490.00000000000216,450.000000000002,290.0000000000013
380.0000000000017,-240.00000000000108,-670.000000000003,-50.00000000000022,520.0000000000023,-510.0000000000023,10.000000000000044,190.00000000000085,150.00000000000065,490.00000000000216,450.000000000002,290.0000000000013
290.0000000000013,-290.0000000000013,-620.0000000000027,10.000000000000044,450.000000000002,-500.0000000000022,10.000000000000044,190.00000000000085,160.0000000000007,500.0000000000022,460.00000000000205,300.0000000000013
200.00000000000088,-320.0000000000014,-540.0000000000024,70.00000000000031,370.00000000000165,-470.0000000000021,-0.0,180.0000000000008,160.0000000000007,500.0000000000022,460.00000000000205,300.0000000000013
110.00000000000048,-330.0000000000015,-450.000000000002,110.00000000000048,280.00000000000125,-420.0000000000019,-0.0,180.0000000000008,160.0000000000007,500.0000000000022,470.0000000000021,300.0000000000013
30.000000000000135,-330.0000000000015,-350.00000000000153,130.00000000000057,190.00000000000085,-350.00000000000153,-0.0,170.00000000000077,170.00000000000077,510.0000000000023,470.0000000000021,310.00000000000136
-20.00000000000009,-300.0000000000013,-250.0000000000011,140.00000000000063,120.00000000000054,-290.0000000000013,-0.0,170.00000000000077,180.0000000000008,520.0000000000023,480.00000000000216,310.00000000000136
-50.00000000000022,-260.00000000000114,-170.00000000000077,140.00000000000063,60.00000000000027,-230.00000000000102,10.000000000000044,160.0000000000007,180.0000000000008,520.0000000000023,480.00000000000216,320.0000000000014
-70.00000000000031,-230.00000000000102,-110.00000000000048,120.00000000000054,20.00000000000009,-170.00000000000077,-0.0,150.00000000000065,190.00000000000085,520.0000000000023,480.00000000000216,310.00000000000136
-70.00000000000031,-180.0000000000008,-70.00000000000031,100.00000000000044,-0.0,-130.00000000000057,10.000000000000044,140.00000000000063,190.00000000000085,530.0000000000024,480.00000000000216,310.00000000000136
-60.00000000000027,-140.00000000000063,-40.00000000000018,80.00000000000036,-10.000000000000044,-100.00000000000044,10.000000000000044,130.00000000000057,200.00000000000088,530.0000000000024,480.00000000000216,310.00000000000136
-60.00000000000027,-100.00000000000044,-20.00000000000009,60.00000000000027,-30.000000000000135,-70.00000000000031,10.000000000000044,120.00000000000054,200.00000000000088,520.0000000000023,480.00000000000216,300.0000000000013
-60.00000000000027,-80.00000000000036,10.000000000000044,50.00000000000022,-40.00000000000018,-50.00000000000022,10.000000000000044,110.00000000000048,200.00000000000088,520.0000000000023,470.0000000000021,300.0000000000013
-60.00000000000027,-60.00000000000027,20.00000000000009,40.00000000000018,-40.00000000000018,-30.000000000000135,20.00000000000009,100.00000000000044,200.00000000000088,520.0000000000023,470.0000000000021,290.0000000000013
-50.00000000000022,-40.00000000000018,30.000000000000135,40.00000000000018,-40.00000000000018,-20.00000000000009,20.00000000000009,100.00000000000044,200.00000000000088,510.0000000000023,460.00000000000205,280.00000000000125
-50.00000000000022,-30.000000000000135,40.00000000000018,30.000000000000135,-40.00000000000018,-20.00000000000009,20.00000000000009,90.0000000000004,190.00000000000085,510.0000000000023,450.000000000002,280.00000000000125
-50.00000000000022,-20.00000000000009,40.00000000000018,30.000000000000135,-40.00000000000018,-10.000000000000044,20.00000000000009,80.00000000000036,190.00000000000085,500.0000000000022,440.00000000000193,270.0000000000012
-50.00000000000022,-20.00000000000009,40.00000000000018,30.000000000000135,-40.00000000000018,-10.000000000000044,20.00000000000009,70.00000000000031,190.00000000000085,500.0000000000022,440.00000000000193,260.00000000000114
-40.00000000000018,-10.000000000000044,40.00000000000018,30.000000000000135,-40.00000000000018,-10.000000000000044,20.00000000000009,70.00000000000031,180.0000000000008,490.00000000000216,430.00000000000193,260.00000000000114
-50.00000000000022,-10.000000000000044,40.00000000000018,30.000000000000135,-40.00000000000018,-10.000000000000044,20.00000000000009,60.00000000000027,180.0000000000008,490.00000000000216,420.0000000000019,250.0000000000011
-50.00000000000022,-10.000000000000044,40.00000000000018,30.000000000000135,-50.00000000000022,-10.000000000000044,20.00000000000009,60.00000000000027,170.00000000000077,490.00000000000216,420.0000000000019,250.0000000000011
-50.00000000000022,-10.000000000000044,40.00000000000018,20.00000000000009,-40.00000000000018,-10.000000000000044,20.00000000000009,50.00000000000022,170.00000000000077,480.00000000000216,410.0000000000018,240.00000000000108
-40.00000000000018,-10.000000000000044,40.00000000000018,20.00000000000009,-40.00000000000018,-10.000000000000044,20.00000000000009,50.00000000000022,170.00000000000077,480.00000000000216,410.0000000000018,240.00000000000108
-40.00000000000018,-10.000000000000044,40.00000000000018,20.00000000000009,-40.00000000000018,-10.000000000000044,20.00000000000009,50.00000000000022,170.00000000000077,480.00000000000216,410.0000000000018,230.00000000000102
-40.00000000000018,-10.000000000000044,40.00000000000018,20.00000000000009,-40.00000000000018,-10.000000000000044,20.00000000000009,50.00000000000022,170.00000000000077,480.00000000000216,410.0000000000018,230.00000000000102
-30.000000000000135,-10.000000000000044,30.000000000000135,20.00000000000009,-30.000000000000135,-10.000000000000044,30.000000000000135,50.00000000000022,170.00000000000077,480.00000000000216,400.00000000000176,230.00000000000102
-30.000000000000135,-0.0,20.00000000000009,20.00000000000009,-30.000000000000135,-10.000000000000044,30.000000000000135,50.00000000000022,160.0000000000007,470.0000000000021,400.00000000000176,230.00000000000102
-20.00000000000009,-10.000000000000044,20.00000000000009,10.000000000000044,-20.00000000000009,-20.00000000000009,30.000000000000135,60.00000000000027,160.0000000000007,470.0000000000021,400.00000000000176,230.00000000000102
-20.00000000000009,-10.000000000000044,20.00000000000009,10.000000000000044,-20.00000000000009,-20.00000000000009,30.000000000000135,50.00000000000022,160.0000000000007,470.0000000000021,400.00000000000176,230.00000000000102
-10.000000000000044,-0.0,10.000000000000044,-0.0,-10.000000000000044,-20.00000000000009,30.000000000000135,50.00000000000022,160.0000000000007,460.00000000000205,390.0000000000017,220.00000000000097
-10.000000000000044,-0.0,-0.0,-0.0,-10.000000000000044,-20.00000000000009,20.00000000000009,50.00000000000022,160.0000000000007,460.00000000000205,390.0000000000017,220.00000000000097
-0.0,-0.0,-0.0,-0.0,-0.0,-30.000000000000135,20.00000000000009,50.00000000000022,150.00000000000065,460.00000000000205,380.0000000000017,210.00000000000094
10.000000000000044,-0.0,-10.000000000000044,-0.0,10.000000000000044,-30.000000000000135,20.00000000000009,40.00000000000018,150.00000000000065,450.000000000002,380.0000000000017,210.00000000000094
10.000000000000044,-0.0,-10.000000000000044,-0.0,10.000000000000044,-30.000000000000135,20.00000000000009,40.00000000000018,150.00000000000065,450.000000000002,370.00000000000165,210.00000000000094
20.00000000000009,-0.0,-20.00000000000009,-0.0,10.000000000000044,-40.00000000000018,20.00000000000009,40.00000000000018,150.00000000000065,450.000000000002,370.00000000000165,210.00000000000094
20.00000000000009,-10.000000000000044,-20.00000000000009,-10.000000000000044,20.00000000000009,-40.00000000000018,20.00000000000009,40.00000000000018,150.00000000000065,450.000000000002,370.00000000000165,200.00000000000088
30.000000000000135,-0.0,-30.000000000000135,-10.000000000000044,30.000000000000135,-40.00000000000018,20.00000000000009,30.000000000000135,150.00000000000065,450.000000000002,370.00000000000165,200.00000000000088
30.000000000000135,-0.0,-30.000000000000135,-10.000000000000044,30.000000000000135,-40.00000000000018,20.00000000000009,30.000000000000135,150.00000000000065,450.000000000002,360.0000000000016,200.00000000000088
40.00000000000018,-0.0,-40.00000000000018,-20.00000000000009,30.000000000000135,-40.00000000000018,30.000000000000135,30.000000000000135,150.00000000000065,450.000000000002,360.0000000000016,200.00000000000088
40.00000000000018,-0.0,-40.00000000000018,-20.00000000000009,40.00000000000018,-40.00000000000018,30.000000000000135,30.000000000000135,150.00000000000065,450.000000000002,360.0000000000016,200.00000000000088
40.00000000000018,-0.0,-40.00000000000018,-20.00000000000009,40.00000000000018,-50.00000000000022,30.000000000000135,30.000000000000135,150.00000000000065,450.000000000002,360.0000000000016,200.00000000000088
40.00000000000018,-0.0,-40.00000000000018,-20.00000000000009,40.00000000000018,-50.00000000000022,30.000000000000135,40.00000000000018,150.00000000000065,450.000000000002,360.0000000000016,200.00000000000088
40.00000000000018,-0.0,-40.00000000000018,-20.00000000000009,40.00000000000018,-50.00000000000022,30.000000000000135,40.00000000000018,150.00000000000065,450.000000000002,360.0000000000016,200.00000000000088
40.00000000000018,-0.0,-40.00000000000018,-20.00000000000009,40.00000000000018,-40.00000000000018,30.000000000000135,40.00000000000018,150.00000000000065,450.000000000002,360.0000000000016,200.00000000000088
50.00000000000022,-0.0,-40.00000000000018,-20.00000000000009,40.00000000000018,-50.00000000000022,30.000000000000135,40.00000000000018,150.00000000000065,450.000000000002,360.0000000000016,200.00000000000088
50.00000000000022,-0.0,-40.00000000000018,-20.00000000000009,40.00000000000018,-50.00000000000022,30.000000000000135,40.00000000000018,150.00000000000065,450.000000000002,360.0000000000016,200.00000000000088
50.00000000000022,-0.0,-40.00000000000018,-20.00000000000009,40.00000000000018,-50.00000000000022,30.000000000000135,40.00000000000018,160.0000000000007,450.000000000002,360.0000000000016,200.00000000000088
50.00000000000022,-0.0,-50.00000000000022,-20.00000000000009,50.00000000000022,-50.00000000000022,30.000000000000135,40.00000000000018,150.00000000000065,440.00000000000193,360.0000000000016,200.00000000000088
50.00000000000022,-0.0,-50.00000000000022,-30.000000000000135,50.00000000000022,-50.00000000000022,30.000000000000135,40.00000000000018,150.00000000000065,440.00000000000193,360.0000000000016,200.00000000000088
50.00000000000022,-0.0,-40.00000000000018,-30.000000000000135,50.00000000000022,-40.00000000000018,30.000000000000135,40.00000000000018,160.0000000000007,440.00000000000193,360.0000000000016,200.00000000000088
50.00000000000022,10.000000000000044,-40.00000000000018,-30.000000000000135,50.00000000000022,-40.00000000000018,30.000000000000135,40.00000000000018,150.00000000000065,440.00000000000193,360.0000000000016,210.00000000000094
60.00000000000027,10.000000000000044,-50.00000000000022,-40.00000000000018,50.00000000000022,-40.00000000000018,30.000000000000135,40.00000000000018,150.00000000000065,440.00000000000193,360.0000000000016,210.00000000000094
70.00000000000031,10.000000000000044,-50.00000000000022,-40.00000000000018,60.00000000000027,-40.00000000000018,30.000000000000135,40.00000000000018,150.00000000000065,440.00000000000193,360.0000000000016,210.00000000000094
70.00000000000031,20.00000000000009,-40.00000000000018,-40.00000000000018,60.00000000000027,-40.00000000000018,30.000000000000135,40.00000000000018,160.0000000000007,440.00000000000193,360.0000000000016,210.00000000000094
70.00000000000031,20.00000000000009,-50.00000000000022,-40.00000000000018,60.00000000000027,-40.00000000000018,30.000000000000135,40.00000000000018,160.0000000000007,440.00000000000193,360.0000000000016,210.00000000000094
70.00000000000031,20.00000000000009,-50.00000000000022,-50.00000000000022,60.00000000000027,-40.00000000000018,20.00000000000009,40.00000000000018,160.0000000000007,450.000000000002,360.0000000000016,210.00000000000094
70.00000000000031,20.00000000000009,-50.00000000000022,-50.00000000000022,60.00000000000027,-40.00000000000018,20.00000000000009,40.00000000000018,160.0000000000007,450.000000000002,370.00000000000165,220.00000000000097
80.00000000000036,20.00000000000009,-40.00000000000018,-50.00000000000022,60.00000000000027,-30.000000000000135,20.00000000000009,40.00000000000018,160.0000000000007,450.000000000002,370.00000000000165,220.00000000000097
80.00000000000036,30.000000000000135,-50.00000000000022,-60.00000000000027,70.00000000000031,-30.000000000000135,20.00000000000009,50.00000000000022,160.0000000000007,450.000000000002,370.00000000000165,220.00000000000097
90.0000000000004,30.000000000000135,-50.00000000000022,-70.00000000000031,70.00000000000031,-30.000000000000135,20.00000000000009,40.00000000000018,160.0000000000007,440.00000000000193,360.0000000000016,210.00000000000094
100.00000000000044,40.00000000000018,-50.00000000000022,-70.00000000000031,70.00000000000031,-20.00000000000009,20.00000000000009,40.00000000000018,160.0000000000007,440.00000000000193,360.0000000000016,210.00000000000094
100.00000000000044,50.00000000000022,-40.00000000000018,-80.00000000000036,70.00000000000031,-20.00000000000009,20.00000000000009,40.00000000000018,160.0000000000007,440.00000000000193,360.0000000000016,210.00000000000094
110.00000000000048,50.00000000000022,-50.00000000000022,-80.00000000000036,70.00000000000031,-20.00000000000009,20.00000000000009,30.000000000000135,150.00000000000065,430.00000000000193,360.0000000000016,210.00000000000094
110.00000000000048,50.00000000000022,-50.00000000000022,-90.0000000000004,80.00000000000036,-20.00000000000009,20.00000000000009,30.000000000000135,150.00000000000065,430.00000000000193,350.00000000000153,200.00000000000088
120.00000000000054,60.00000000000027,-50.00000000000022,-90.0000000000004,80.00000000000036,-20.00000000000009,10.000000000000044,30.000000000000135,150.00000000000065,430.00000000000193,350.00000000000153,200.00000000000088
120.00000000000054,60.00000000000027,-50.00000000000022,-100.00000000000044,80.00000000000036,-10.000000000000044,10.000000000000044,30.000000000000135,160.0000000000007,430.00000000000193,350.00000000000153,200.00000000000088
130.00000000000057,70.00000000000031,-50.00000000000022,-100.00000000000044,90.0000000000004,-10.000000000000044,10.000000000000044,30.000000000000135,150.00000000000065,430.00000000000193,350.00000000000153,200.00000000000088
140.00000000000063,70.00000000000031,-50.00000000000022,-110.00000000000048,90.0000000000004,-10.000000000000044,10.000000000000044,40.00000000000018,160.0000000000007,430.00000000000193,350.00000000000153,200.00000000000088
140.00000000000063,80.00000000000036,-50.00000000000022,-110.00000000000048,90.0000000000004,-10.000000000000044,10.000000000000044,40.00000000000018,160.0000000000007,430.00000000000193,350.00000000000153,200.00000000000088
140.00000000000063,80.00000000000036,-50.00000000000022,-110.00000000000048,90.0000000000004,-10.000000000000044,10.000000000000044,40.00000000000018,160.0000000000007,430.00000000000193,350.00000000000153,200.00000000000088
140.00000000000063,80.00000000000036,-50.00000000000022,-110.00000000000048,90.0000000000004,-10.000000000000044,10.000000000000044,30.000000000000135,150.00000000000065,430.00000000000193,350.00000000000153,200.00000000000088
130.00000000000057,80.00000000000036,-50.00000000000022,-110.00000000000048,90.0000000000004,-10.000000000000044,10.000000000000044,30.000000000000135,150.00000000000065,430.00000000000193,350.00000000000153,200.00000000000088
130.00000000000057,80.00000000000036,-40.00000000000018,-100.00000000000044,80.00000000000036,-10.000000000000044,10.000000000000044,30.000000000000135,160.0000000000007,430.00000000000193,350.00000000000153,200.00000000000088
120.00000000000054,80.00000000000036,-40.00000000000018,-100.00000000000044,80.00000000000036,-10.000000000000044,10.000000000000044,30.000000000000135,160.0000000000007,430.00000000000193,350.00000000000153,200.00000000000088
110.00000000000048,70.00000000000031,-40.00000000000018,-90.0000000000004,70.00000000000031,-10.000000000000044,10.000000000000044,30.000000000000135,150.00000000000065,430.00000000000193,350.00000000000153,190.00000000000085
100.00000000000044,70.00000000000031,-30.000000000000135,-90.0000000000004,70.00000000000031,-10.000000000000044,10.000000000000044,30.000000000000135,150.00000000000065,430.00000000000193,340.00000000000153,190.00000000000085
90.0000000000004,60.00000000000027,-30.000000000000135,-80.00000000000036,60.00000000000027,-10.000000000000044,10.000000000000044,30.000000000000135,160.0000000000007,430.00000000000193,340.00000000000153,190.00000000000085
80.00000000000036,60.00000000000027,-30.000000000000135,-70.00000000000031,50.00000000000022,-10.000000000000044,10.000000000000044,30.000000000000135,160.0000000000007,430.00000000000193,340.00000000000153,190.00000000000085
70.00000000000031,50.00000000000022,-20.00000000000009,-60.00000000000027,50.00000000000022,-10.000000000000044,20.00000000000009,30.000000000000135,170.00000000000077,430.00000000000193,350.00000000000153,200.00000000000088
60.00000000000027,50.00000000000022,-20.00000000000009,-50.00000000000022,40.00000000000018,-10.000000000000044,20.00000000000009,40.00000000000018,170.00000000000077,440.00000000000193,350.00000000000153,200.00000000000088
50.00000000000022,40.00000000000018,-10.000000000000044,-40.00000000000018,30.000000000000135,-10.000000000000044,30.000000000000135,40.00000000000018,180.0000000000008,450.000000000002,360.0000000000016,200.00000000000088
40.00000000000018,40.00000000000018,-0.0,-40.00000000000018,20.00000000000009,-10.000000000000044,30.000000000000135,50.00000000000022,190.00000000000085,460.00000000000205,360.0000000000016,210.00000000000094
30.000000000000135,30.000000000000135,-0.0,-30.000000000000135,10.000000000000044,-10.000000000000044,40.00000000000018,50.00000000000022,200.00000000000088,470.0000000000021,370.00000000000165,220.00000000000097
20.00000000000009,30.000000000000135,10.000000000000044,-20.00000000000009,-0.0,-10.000000000000044,50.00000000000022,60.00000000000027,200.00000000000088,470.0000000000021,380.0000000000017,230.00000000000102
10.000000000000044,20.00000000000009,10.000000000000044,-20.00000000000009,-0.0,-10.000000000000044,50.00000000000022,60.00000000000027,200.00000000000088,480.00000000000216,380.0000000000017,230.00000000000102
10.000000000000044,20.00000000000009,10.000000000000044,-10.000000000000044,-0.0,-10.000000000000044,50.00000000000022,60.00000000000027,210.00000000000094,490.00000000000216,390.0000000000017,230.00000000000102
-0.0,20.00000000000009,10.000000000000044,-10.000000000000044,-10.000000000000044,-10.000000000000044,40.00000000000018,60.00000000000027,210.00000000000094,490.00000000000216,390.0000000000017,240.00000000000108
-0.0,10.000000000000044,10.000000000000044,-0.0,-10.000000000000044,-10.000000000000044,30.000000000000135,60.00000000000027,220.00000000000097,490.00000000000216,400.00000000000176,250.0000000000011
-0.0,10.000000000000044,20.00000000000009,-0.0,-10.000000000000044,-10.000000000000044,20.00000000000009,70.00000000000031,220.00000000000097,500.0000000000022,410.0000000000018,260.00000000000114
-0.0,10.000000000000044,10.000000000000044,-0.0,-10.000000000000044,-10.000000000000044,-0.0,70.00000000000031,210.00000000000094,490.00000000000216,410.0000000000018,260.00000000000114
-10.000000000000044,10.000000000000044,10.000000000000044,-0.0,-20.00000000000009,-10.000000000000044,-10.000000000000044,60.00000000000027,210.00000000000094,490.00000000000216,410.0000000000018,270.0000000000012
-10.000000000000044,-0.0,20.00000000000009,-0.0,-20.00000000000009,-10.000000000000044,-20.00000000000009,60.00000000000027,200.00000000000088,480.00000000000216,410.0000000000018,260.00000000000114
-10.000000000000044,-0.0,10.000000000000044,-0.0,-10.000000000000044,-10.000000000000044,-30.000000000000135,50.00000000000022,200.00000000000088,470.0000000000021,400.00000000000176,260.00000000000114
-10.000000000000044,-0.0,10.000000000000044,-0.0,-20.00000000000009,-20.00000000000009,-40.00000000000018,40.00000000000018,200.00000000000088,460.00000000000205,390.0000000000017,250.0000000000011
-10.000000000000044,-0.0,20.00000000000009,10.000000000000044,-20.00000000000009,-20.00000000000009,-40.00000000000018,40.00000000000018,190.00000000000085,450.000000000002,380.0000000000017,240.00000000000108
-10.000000000000044,-0.0,10.000000000000044,10.000000000000044,-20.00000000000009,-20.00000000000009,-40.00000000000018,30.000000000000135,180.0000000000008,430.00000000000193,370.00000000000165,230.00000000000102
-10.000000000000044,-0.0,10.000000000000044,10.000000000000044,-10.000000000000044,-20.00000000000009,-40.00000000000018,20.00000000000009,170.00000000000077,420.0000000000019,360.0000000000016,220.00000000000097
-20.00000000000009,-10.000000000000044,10.000000000000044,10.000000000000044,-20.00000000000009,-20.00000000000009,-30.000000000000135,20.00000000000009,160.0000000000007,410.0000000000018,340.00000000000153,200.00000000000088
-20.00000000000009,-10.000000000000044,20.00000000000009,10.000000000000044,-20.00000000000009,-20.00000000000009,-30.000000000000135,20.00000000000009,150.00000000000065,400.00000000000176,330.0000000000015,190.00000000000085
-20.00000000000009,-10.000000000000044,10.000000000000044,10.000000000000044,-20.00000000000009,-20.00000000000009,-20.00000000000009,10.000000000000044,150.00000000000065,400.00000000000176,320.0000000000014,180.0000000000008
-20.00000000000009,-10.000000000000044,10.000000000000044,20.00000000000009,-20.00000000000009,-20.00000000000009,-10.000000000000044,10.000000000000044,140.00000000000063,390.0000000000017,310.00000000000136,170.00000000000077
-30.000000000000135,-10.000000000000044,20.00000000000009,20.00000000000009,-30.000000000000135,-20.00000000000009,-10.000000000000044,10.000000000000044,140.00000000000063,390.0000000000017,310.00000000000136,170.00000000000077
-30.000000000000135,-10.000000000000044,20.00000000000009,20.00000000000009,-30.000000000000135,-20.00000000000009,-0.0,10.000000000000044,140.00000000000063,390.0000000000017,300.0000000000013,160.0000000000007
-30.000000000000135,-10.000000000000044,20.00000000000009,20.00000000000009,-30.000000000000135,-20.00000000000009,-0.0,10.000000000000044,140.00000000000063,380.0000000000017,300.0000000000013,150.00000000000065
-30.000000000000135,-10.000000000000044,20.00000000000009,20.00000000000009,-30.000000000000135,-20.00000000000009,-0.0,-0.0,130.00000000000057,380.0000000000017,290.0000000000013,150.00000000000065
-30.000000000000135,-10.000000000000044,20.00000000000009,20.00000000000009,-30.000000000000135,-20.00000000000009,10.000000000000044,-0.0,130.00000000000057,380.0000000000017,290.0000000000013,140.00000000000063
-30.000000000000135,-10.000000000000044,20.00000000000009,20.00000000000009,-30.000000000000135,-20.00000000000009,10.000000000000044,-0.0,130.00000000000057,370.00000000000165,280.00000000000125,140.00000000000063
-30.000000000000135,-10.000000000000044,20.00000000000009,20.00000000000009,-30.000000000000135,-20.00000000000009,10.000000000000044,-0.0,130.00000000000057,370.00000000000165,280.00000000000125,140.00000000000063
-30.000000000000135,-10.000000000000044,20.00000000000009,20.00000000000009,-30.000000000000135,-20.00000000000009,10.000000000000044,-0.0,120.00000000000054,370.00000000000165,280.00000000000125,130.00000000000057
-30.000000000000135,-10.000000000000044,20.00000000000009,20.00000000000009,-30.000000000000135,-20.00000000000009,10.000000000000044,-0.0,120.00000000000054,370.00000000000165,270.0000000000012,130.00000000000057
-30.000000000000135,-10.000000000000044,20.00000000000009,20.00000000000009,-30.000000000000135,-20.00000000000009,10.000000000000044,-0.0,130.00000000000057,370.00000000000165,270.0000000000012,130.00000000000057
-30.000000000000135,-10.000000000000044,20.00000000000009,20.00000000000009,-30.000000000000135,-20.00000000000009,10.000000000000044,-0.0,130.00000000000057,370.00000000000165,270.0000000000012,130.00000000000057
-30.000000000000135,-10.000000000000044,20.00000000000009,20.00000000000009,-30.000000000000135,-20.00000000000009,10.000000000000044,10.000000000000044,130.00000000000057,370.00000000000165,270.0000000000012,130.00000000000057
-30.000000000000135,-10.000000000000044,30.000000000000135,20.00000000000009,-30.000000000000135,-20.00000000000009,10.000000000000044,10.000000000000044,130.00000000000057,370.00000000000165,270.0000000000012,130.00000000000057
-30.000000000000135,-10.000000000000044,30.000000000000135,20.00000000000009,-30.000000000000135,-20.00000000000009,10.000000000000044,10.000000000000044,130.00000000000057,370.00000000000165,270.0000000000012,130.00000000000057
-30.000000000000135,-10.000000000000044,30.000000000000135,20.00000000000009,-30.000000000000135,-10.000000000000044,20.00000000000009,10.000000000000044,130.00000000000057,370.00000000000165,270.0000000000012,130.00000000000057
-30.000000000000135,-10.000000000000044,30.000000000000135,20.00000000000009,-30.000000000000135,-10.000000000000044,10.000000000000044,20.00000000000009,130.00000000000057,370.00000000000165,270.0000000000012,130.00000000000057
-30.000000000000135,-10.000000000000044,30.000000000000135,20.00000000000009,-30.000000000000135,-10.000000000000044,10.000000000000044,20.00000000000009,130.00000000000057,370.00000000000165,270.0000000000012,130.00000000000057
-30.000000000000135,-10.000000000000044,30.000000000000135,20.00000000000009,-30.000000000000135,-10.000000000000044,10.000000000000044,20.00000000000009,130.00000000000057,370.00000000000165,270.0000000000012,130.00000000000057
-30.000000000000135,-0.0,30.000000000000135,20.00000000000009,-30.000000000000135,-10.000000000000044,20.00000000000009,10.000000000000044,140.00000000000063,380.0000000000017,270.0000000000012,130.00000000000057
-30.000000000000135,-0.0,30.000000000000135,20.00000000000009,-30.000000000000135,-10.000000000000044,20.00000000000009,10.000000000000044,160.0000000000007,400.00000000000176,280.00000000000125,140.00000000000063
-30.000000000000135,-10.000000000000044,30.000000000000135,20.00000000000009,-30.000000000000135,-10.000000000000044,30.000000000000135,20.00000000000009,190.00000000000085,430.00000000000193,290.0000000000013,150.00000000000065
-30.000000000000135,-10.000000000000044,30.000000000000135,20.00000000000009,-30.000000000000135,-10.000000000000044,50.00000000000022,30.000000000000135,230.00000000000102,490.00000000000216,320.0000000000014,190.00000000000085
-30.000000000000135,-0.0,30.000000000000135,20.00000000000009,-30.000000000000135,-10.000000000000044,60.00000000000027,70.00000000000031,300.0000000000013,560.0000000000025,380.0000000000017,240.00000000000108
-30.000000000000135,-0.0,30.000000000000135,20.00000000000009,-30.000000000000135,-10.000000000000044,80.00000000000036,130.00000000000057,390.0000000000017,660.000000000003,460.00000000000205,320.0000000000014
-40.00000000000018,-0.0,30.000000000000135,20.00000000000009,-30.000000000000135,-10.000000000000044,70.00000000000031,220.00000000000097,490.00000000000216,780.0000000000034,560.0000000000025,410.0000000000018
-40.00000000000018,-10.000000000000044,30.000000000000135,20.00000000000009,-30.000000000000135,-10.000000000000044,30.000000000000135,330.0000000000015,590.0000000000026,900.000000000004,690.0000000000031,520.0000000000023
-40.00000000000018,-10.000000000000044,30.000000000000135,30.000000000000135,-40.00000000000018,-10.000000000000044,-10.000000000000044,440.00000000000193,670.000000000003,1000.0000000000044,810.0000000000036,630.0000000000028
-40.00000000000018,-10.000000000000044,40.00000000000018,30.000000000000135,-40.00000000000018,-10.000000000000044,-70.00000000000031,530.0000000000024,690.0000000000031,1030.0000000000045,890.000000000004,710.0000000000032
-40.00000000000018,-10.000000000000044,30.000000000000135,30.000000000000135,-40.00000000000018,-10.000000000000044,-140.00000000000063,570.0000000000025,640.0000000000028,980.0000000000043,920.0000000000041,720.0000000000032
-40.00000000000018,-10.000000000000044,30.000000000000135,20.00000000000009,-30.000000000000135,-10.000000000000044,-200.00000000000088,530.0000000000024,540.0000000000024,870.0000000000039,860.0000000000039,660.000000000003
-40.00000000000018,-10.000000000000044,40.00000000000018,20.00000000000009,-40.00000000000018,-10.000000000000044,-260.00000000000114,440.00000000000193,380.0000000000017,690.0000000000031,740.0000000000033,540.0000000000024
-40.00000000000018,-0.0,40.00000000000018,20.00000000000009,-40.00000000000018,-10.000000000000044,-300.0000000000013,280.00000000000125,180.0000000000008,470.0000000000021,560.0000000000025,390.0000000000017
-40.00000000000018,-10.000000000000044,30.000000000000135,20.00000000000009,-40.00000000000018,-10.000000000000044,-340.00000000000153,80.00000000000036,-10.000000000000044,260.00000000000114,350.00000000000153,210.00000000000094
-40.00000000000018,-10.000000000000044,30.000000000000135,20.00000000000009,-40.00000000000018,-10.000000000000044,-370.00000000000165,-110.00000000000048,-190.00000000000085,80.00000000000036,150.00000000000065,30.000000000000135
-50.00000000000022,-10.000000000000044,40.00000000000018,30.000000000000135,-40.00000000000018,-10.000000000000044,-380.0000000000017,-270.0000000000012,-320.0000000000014,-60.00000000000027,-10.000000000000044,-120.00000000000054
-50.00000000000022,-10.000000000000044,40.00000000000018,30.000000000000135,-40.00000000000018,-10.000000000000044,-370.00000000000165,-400.00000000000176,-390.0000000000017,-140.00000000000063,-140.00000000000063,-230.00000000000102
-50.00000000000022,-10.000000000000044,40.00000000000018,30.000000000000135,-40.00000000000018,-10.000000000000044,-340.00000000000153,-470.0000000000021,-410.0000000000018,-160.0000000000007,-210.00000000000094,-300.0000000000013
-50.00000000000022,-10.000000000000044,40.00000000000018,30.000000000000135,-50.00000000000022,-10.000000000000044,-290.0000000000013,-490.00000000000216,-380.0000000000017,-130.00000000000057,-230.00000000000102,-320.0000000000014
-60.00000000000027,-10.000000000000044,40.00000000000018,30.000000000000135,-50.00000000000022,-10.000000000000044,-240.00000000000108,-450.000000000002,-320.0000000000014,-80.00000000000036,-200.00000000000088,-290.0000000000013
-60.00000000000027,-20.00000000000009,40.00000000000018,40.00000000000018,-50.00000000000022,-10.000000000000044,-190.00000000000085,-390.0000000000017,-240.00000000000108,-0.0,-140.00000000000063,-240.00000000000108
-50.00000000000022,-20.00000000000009,40.00000000000018,40.00000000000018,-50.00000000000022,-10.000000000000044,-150.00000000000065,-300.0000000000013,-150.00000000000065,90.0000000000004,-70.00000000000031,-170.00000000000077
-50.00000000000022,-20.00000000000009,40.00000000000018,40.00000000000018,-50.00000000000022,-10.000000000000044,-110.00000000000048,-210.00000000000094,-60.00000000000027,180.0000000000008,10.000000000000044,-90.0000000000004
-50.00000000000022,-20.00000000000009,40.00000000000018,30.000000000000135,-40.00000000000018,-10.000000000000044,-70.00000000000031,-120.00000000000054,10.000000000000044,240.00000000000108,80.00000000000036,-30.000000000000135
-50.00000000000022,-20.00000000000009,40.00000000000018,30.000000000000135,-40.00000000000018,-10.000000000000044,-30.000000000000135,-50.00000000000022,60.00000000000027,280.00000000000125,130.00000000000057,10.000000000000044
-50.00000000000022,-10.000000000000044,40.00000000000018,20.00000000000009,-40.00000000000018,-0.0,-10.000000000000044,-10.000000000000044,80.00000000000036,300.0000000000013,160.0000000000007,40.00000000000018
-40.00000000000018,-10.000000000000044,50.00000000000022,20.00000000000009,-50.00000000000022,-0.0,10.000000000000044,10.000000000000044,100.00000000000044,320.0000000000014,180.0000000000008,60.00000000000027
-40.00000000000018,-0.0,60.00000000000027,10.000000000000044,-60.00000000000027,-0.0,20.00000000000009,20.00000000000009,110.00000000000048,320.0000000000014,200.00000000000088,70.00000000000031
-40.00000000000018,10.000000000000044,70.00000000000031,-0.0,-60.00000000000027,10.000000000000044,20.00000000000009,30.000000000000135,110.00000000000048,330.0000000000015,200.00000000000088,80.00000000000036
-40.00000000000018,30.000000000000135,90.0000000000004,-0.0,-70.00000000000031,30.000000000000135,20.00000000000009,40.00000000000018,120.00000000000054,330.0000000000015,210.00000000000094,90.0000000000004
-40.00000000000018,40.00000000000018,100.00000000000044,-10.000000000000044,-70.00000000000031,40.00000000000018,30.000000000000135,40.00000000000018,120.00000000000054,330.0000000000015,210.00000000000094,90.0000000000004
-40.00000000000018,50.00000000000022,110.00000000000048,-20.00000000000009,-70.00000000000031,50.00000000000022,20.00000000000009,50.00000000000022,120.00000000000054,330.0000000000015,210.00000000000094,90.0000000000004
-30.000000000000135,60.00000000000027,120.00000000000054,-30.000000000000135,-80.00000000000036,60.00000000000027,20.00000000000009,50.00000000000022,120.00000000000054,340.00000000000153,210.00000000000094,90.0000000000004
-30.000000000000135,80.00000000000036,120.00000000000054,-30.000000000000135,-80.00000000000036,70.00000000000031,20.00000000000009,50.00000000000022,120.00000000000054,340.00000000000153,210.00000000000094,100.00000000000044
-20.00000000000009,90.0000000000004,130.00000000000057,-50.00000000000022,-80.00000000000036,80.00000000000036,20.00000000000009,50.00000000000022,130.00000000000057,340.00000000000153,210.00000000000094,100.00000000000044
-0.0,100.00000000000044,120.00000000000054,-60.00000000000027,-60.00000000000027,90.0000000000004,20.00000000000009,50.00000000000022,130.00000000000057,340.00000000000153,210.00000000000094,100.00000000000044
10.000000000000044,120.00000000000054,120.00000000000054,-70.00000000000031,-60.00000000000027,90.0000000000004,20.00000000000009,60.00000000000027,140.00000000000063,350.00000000000153,210.00000000000094,100.00000000000044
20.00000000000009,130.00000000000057,110.00000000000048,-80.00000000000036,-50.00000000000022,90.0000000000004,20.00000000000009,60.00000000000027,140.00000000000063,350.00000000000153,220.00000000000097,100.00000000000044
40.00000000000018,140.00000000000063,110.00000000000048,-90.0000000000004,-40.00000000000018,90.0000000000004,20.00000000000009,60.00000000000027,140.00000000000063,350.00000000000153,210.00000000000094,100.00000000000044
50.00000000000022,140.00000000000063,100.00000000000044,-90.0000000000004,-30.000000000000135,90.0000000000004,30.000000000000135,60.00000000000027,140.00000000000063,340.00000000000153,210.00000000000094,100.00000000000044
40.00000000000018,140.00000000000063,90.0000000000004,-90.0000000000004,-30.000000000000135,70.00000000000031,30.000000000000135,60.00000000000027,140.00000000000063,350.00000000000153,210.00000000000094,100.00000000000044
40.00000000000018,130.00000000000057,80.00000000000036,-80.00000000000036,-30.000000000000135,60.00000000000027,30.000000000000135,60.00000000000027,140.00000000000063,350.00000000000153,220.00000000000097,100.00000000000044
30.000000000000135,120.00000000000054,80.00000000000036,-70.00000000000031,-30.000000000000135,50.00000000000022,30.000000000000135,60.00000000000027,140.00000000000063,340.00000000000153,220.00000000000097,110.00000000000048
