I,II,III,aVR,aVL,aVF,V1,V2,V3,V4,V5,V6
-10.000000000000044,-0.0,10.000000000000044,-0.0,-10.000000000000044,-0.0,-0.0,-0.0,50.00000000000022,80.00000000000036,-0.0,-0.0
-20.00000000000009,-0.0,10.000000000000044,10.000000000000044,-10.000000000000044,-0.0,-20.00000000000009,-0.0,120.00000000000054,200.00000000000088,60.00000000000027,50.00000000000022
-20.00000000000009,-0.0,10.000000000000044,10.000000000000044,-10.000000000000044,-0.0,-40.00000000000018,10.000000000000044,200.00000000000088,360.0000000000016,200.00000000000088,150.00000000000065
-20.00000000000009,-0.0,10.000000000000044,10.000000000000044,-10.000000000000044,-0.0,-80.00000000000036,10.000000000000044,260.00000000000114,540.0000000000024,420.0000000000019,330.0000000000015
-20.00000000000009,-0.0,10.000000000000044,10.000000000000044,-10.000000000000044,-0.0,-150.00000000000065,-50.00000000000022,300.0000000000013,710.0000000000032,710.0000000000032,560.0000000000025
-20.00000000000009,-0.0,10.000000000000044,10.000000000000044,-10.000000000000044,-0.0,-240.00000000000108,-170.00000000000077,260.00000000000114,820.0000000000036,1020.0000000000045,830.0000000000036
-20.00000000000009,-0.0,-0.0,10.000000000000044,-10.000000000000044,-0.0,-340.00000000000153,-340.00000000000153,170.00000000000077,860.0000000000039,1300.0000000000057,1100.0000000000048
-20.00000000000009,-10.000000000000044,-0.0,10.000000000000044,-10.000000000000044,-0.0,-450.000000000002,-560.0000000000025,30.000000000000135,780.0000000000034,1510.0000000000066,1330.000000000006
-20.00000000000009,-10.000000000000044,-0.0,10.000000000000044,-10.000000000000044,-0.0,-560.0000000000025,-800.0000000000035,-150.00000000000065,620.0000000000027,1610.000000000007,1470.0000000000066
-20.00000000000009,-10.000000000000044,-0.0,10.000000000000044,-10.000000000000044,-0.0,-630.0000000000028,-1020.0000000000045,-180.0000000000008,390.0000000000017,1540.0000000000068,1500.0000000000066
-20.00000000000009,-10.000000000000044,10.000000000000044,10.000000000000044,-10.000000000000044,-0.0,-670.000000000003,-180.0000000000008,-190.00000000000085,150.00000000000065,1370.0000000000061,1420.0000000000064
-20.00000000000009,-10.000000000000044,10.000000000000044,10.000000000000044,-10.000000000000044,-0.0,-670.000000000003,-190.00000000000085,-210.00000000000094,-110.00000000000048,1110.000000000005,1260.0000000000057
-20.00000000000009,-10.000000000000044,10.000000000000044,10.000000000000044,-10.000000000000044,-0.0,-640.0000000000028,-210.00000000000094,-220.00000000000097,-260.00000000000114,820.0000000000036,1060.0000000000048
-20.00000000000009,-10.000000000000044,-0.0,10.000000000000044,-10.000000000000044,-0.0,-580.0000000000026,-220.00000000000097,-240.00000000000108,-240.00000000000108,530.0000000000024,830.0000000000036
-20.00000000000009,-10.000000000000044,-0.0,10.000000000000044,-10.000000000000044,-0.0,-500.0000000000022,-240.00000000000108,-260.00000000000114,-260.00000000000114,280.00000000000125,600.0000000000026
-20.00000000000009,-10.000000000000044,-0.0,10.000000000000044,-10.000000000000044,-0.0,-410.0000000000018,-260.00000000000114,-290.0000000000013,-290.0000000000013,80.00000000000036,400.00000000000176
-20.00000000000009,-10.000000000000044,-0.0,10.000000000000044,-10.000000000000044,-0.0,-290.0000000000013,-290.0000000000013,-320.0000000000014,-340.00000000000153,-50.00000000000022,240.00000000000108
-10.000000000000044,-10.000000000000044,-0.0,10.000000000000044,-10.000000000000044,-0.0,-290.0000000000013,-320.0000000000014,-370.00000000000165,-350.00000000000153,-120.00000000000054,130.00000000000057
-10.000000000000044,-10.000000000000044,-0.0,10.000000000000044,-0.0,-0.0,-160.0000000000007,-430.00000000000193,-320.0000000000014,-240.00000000000108,-150.00000000000065,60.00000000000027
-10.000000000000044,-10.000000000000044,-0.0,10.000000000000044,-0.0,-0.0,-100.00000000000044,-340.00000000000153,-180.0000000000008,-150.00000000000065,-130.00000000000057,20.00000000000009
-10.000000000000044,-10.000000000000044,-0.0,10.000000000000044,-0.0,-0.0,-50.00000000000022,-210.00000000000094,-100.00000000000044,-90.0000000000004,-100.00000000000044,10.000000000000044
-10.000000000000044,-10.000000000000044,-0.0,10.000000000000044,-0.0,-0.0,-20.00000000000009,-120.00000000000054,-40.00000000000018,-40.00000000000018,-70.00000000000031,10.000000000000044
-10.000000000000044,-10.000000000000044,-0.0,10.000000000000044,-0.0,-0.0,-0.0,-50.00000000000022,-10.000000000000044,-20.00000000000009,-50.00000000000022,-0.0
-10.000000000000044,-10.000000000000044,-0.0,10.000000000000044,-0.0,-0.0,10.000000000000044,-0.0,-0.0,-0.0,-40.00000000000018,-0.0
-10.000000000000044,-10.000000000000044,-0.0,10.000000000000044,-0.0,-0.0,20.00000000000009,30.000000000000135,20.00000000000009,-0.0,-50.00000000000022,-0.0
-20.00000000000009,-10.000000000000044,-0.0,10.000000000000044,-10.000000000000044,-0.0,30.000000000000135,50.00000000000022,30.000000000000135,-0.0,-50.00000000000022,-10.000000000000044
-20.00000000000009,-10.000000000000044,-0.0,10.000000000000044,-10.000000000000044,-0.0,50.00000000000022,70.00000000000031,40.00000000000018,-0.0,-50.00000000000022,-20.00000000000009
-20.00000000000009,-10.000000000000044,-0.0,10.000000000000044,-10.000000000000044,-0.0,50.00000000000022,90.0000000000004,50.00000000000022,20.00000000000009,-40.00000000000018,-20.00000000000009
-20.00000000000009,-10.000000000000044,10.000000000000044,10.000000000000044,-10.000000000000044,-0.0,60.00000000000027,110.00000000000048,60.00000000000027,30.000000000000135,-40.00000000000018,-20.00000000000009
-20.00000000000009,-10.000000000000044,10.000000000000044,10.000000000000044,-10.000000000000044,-0.0,60.00000000000027,120.00000000000054,70.00000000000031,40.00000000000018,-30.000000000000135,-20.00000000000009
-20.00000000000009,-10.000000000000044,10.000000000000044,10.000000000000044,-20.00000000000009,-0.0,70.00000000000031,130.00000000000057,80.00000000000036,40.00000000000018,-30.000000000000135,-20.00000000000009
-20.00000000000009,-10.000000000000044,10.000000000000044,10.000000000000044,-20.00000000000009,-0.0,70.00000000000031,140.00000000000063,90.0000000000004,50.00000000000022,-20.00000000000009,-20.00000000000009
-20.00000000000009,-0.0,20.00000000000009,10.000000000000044,-20.00000000000009,-0.0,70.00000000000031,150.00000000000065,100.00000000000044,60.00000000000027,-20.00000000000009,-10.000000000000044
-20.00000000000009,-0.0,20.00000000000009,-0.0,-20.00000000000009,-0.0,70.00000000000031,160.0000000000007,100.00000000000044,70.00000000000031,-10.000000000000044,-10.000000000000044
-10.000000000000044,-0.0,20.00000000000009,-0.0,-10.000000000000044,10.000000000000044,70.00000000000031,170.00000000000077,110.00000000000048,80.00000000000036,-0.0,-10.000000000000044
-10.000000000000044,-0.0,20.00000000000009,-0.0,-10.000000000000044,20.00000000000009,70.00000000000031,180.0000000000008,120.00000000000054,80.00000000000036,-0.0,-10.000000000000044
-0.0,10.000000000000044,30.000000000000135,-10.000000000000044,-10.000000000000044,30.000000000000135,70.00000000000031,190.00000000000085,130.00000000000057,90.0000000000004,-0.0,-10.000000000000044
-0.0,20.00000000000009,40.00000000000018,-20.00000000000009,-20.00000000000009,40.00000000000018,80.00000000000036,200.00000000000088,140.00000000000063,100.00000000000044,-0.0,-10.000000000000044
-0.0,40.00000000000018,50.00000000000022,-30.000000000000135,-20.00000000000009,50.00000000000022,80.00000000000036,200.00000000000088,150.00000000000065,110.00000000000048,-0.0,-0.0
-0.0,50.00000000000022,60.00000000000027,-40.00000000000018,-20.00000000000009,70.00000000000031,80.00000000000036,210.00000000000094,160.0000000000007,110.00000000000048,10.000000000000044,-0.0
10.000000000000044,70.00000000000031,70.00000000000031,-50.00000000000022,-30.000000000000135,80.00000000000036,80.00000000000036,220.00000000000097,170.00000000000077,120.00000000000054,20.00000000000009,-0.0
10.000000000000044,90.0000000000004,90.0000000000004,-60.00000000000027,-30.000000000000135,90.0000000000004,80.00000000000036,230.00000000000102,180.0000000000008,130.00000000000057,20.00000000000009,-0.0
10.000000000000044,100.00000000000044,100.00000000000044,-70.00000000000031,-40.00000000000018,110.00000000000048,80.00000000000036,250.0000000000011,190.00000000000085,140.00000000000063,30.000000000000135,-0.0
20.00000000000009,120.00000000000054,100.00000000000044,-80.00000000000036,-40.00000000000018,110.00000000000048,80.00000000000036,260.00000000000114,200.00000000000088,150.00000000000065,30.000000000000135,-0.0
20.00000000000009,130.00000000000057,100.00000000000044,-80.00000000000036,-30.000000000000135,120.00000000000054,80.00000000000036,270.0000000000012,210.00000000000094,170.00000000000077,40.00000000000018,-0.0
30.000000000000135,130.00000000000057,100.00000000000044,-80.00000000000036,-30.000000000000135,120.00000000000054,80.00000000000036,290.0000000000013,230.00000000000102,180.0000000000008,50.00000000000022,-0.0
30.000000000000135,130.00000000000057,100.00000000000044,-90.0000000000004,-30.000000000000135,120.00000000000054,80.00000000000036,300.0000000000013,250.0000000000011,190.00000000000085,60.00000000000027,10.000000000000044
40.00000000000018,140.00000000000063,90.0000000000004,-90.0000000000004,-20.00000000000009,110.00000000000048,80.00000000000036,310.00000000000136,260.00000000000114,210.00000000000094,70.00000000000031,10.000000000000044
40.00000000000018,130.00000000000057,80.00000000000036,-80.00000000000036,-20.00000000000009,100.00000000000044,80.00000000000036,330.0000000000015,280.00000000000125,220.00000000000097,80.00000000000036,20.00000000000009
40.00000000000018,120.00000000000054,70.00000000000031,-80.00000000000036,-10.000000000000044,90.0000000000004,80.00000000000036,350.00000000000153,300.0000000000013,240.00000000000108,90.0000000000004,30.000000000000135
40.00000000000018,110.00000000000048,50.00000000000022,-70.00000000000031,-0.0,80.00000000000036,80.00000000000036,370.00000000000165,320.0000000000014,260.00000000000114,100.00000000000044,40.00000000000018
30.000000000000135,100.00000000000044,40.00000000000018,-60.00000000000027,-0.0,60.00000000000027,80.00000000000036,390.0000000000017,340.00000000000153,280.00000000000125,120.00000000000054,50.00000000000022
20.00000000000009,80.00000000000036,30.000000000000135,-50.00000000000022,-0.0,50.00000000000022,80.00000000000036,410.0000000000018,360.0000000000016,300.0000000000013,130.00000000000057,50.00000000000022
10.000000000000044,60.00000000000027,20.00000000000009,-30.000000000000135,-0.0,30.000000000000135,80.00000000000036,430.00000000000193,390.0000000000017,320.0000000000014,150.00000000000065,60.00000000000027
-0.0,40.00000000000018,10.000000000000044,-20.00000000000009,-0.0,20.00000000000009,80.00000000000036,460.00000000000205,410.0000000000018,350.00000000000153,170.00000000000077,70.00000000000031
-0.0,20.00000000000009,10.000000000000044,-10.000000000000044,-0.0,10.000000000000044,80.00000000000036,480.00000000000216,440.00000000000193,370.00000000000165,180.0000000000008,80.00000000000036
-0.0,10.000000000000044,-0.0,-0.0,-0.0,-0.0,80.00000000000036,510.0000000000023,460.00000000000205,400.00000000000176,200.00000000000088,90.0000000000004
-10.000000000000044,-0.0,-0.0,-0.0,-0.0,-0.0,80.00000000000036,540.0000000000024,490.00000000000216,420.0000000000019,220.00000000000097,100.00000000000044
-10.000000000000044,-10.000000000000044,-10.000000000000044,10.000000000000044,-0.0,-10.000000000000044,80.00000000000036,560.0000000000025,510.0000000000023,440.00000000000193,240.00000000000108,110.00000000000048
-10.000000000000044,-20.00000000000009,-10.000000000000044,20.00000000000009,-0.0,-20.00000000000009,80.00000000000036,580.0000000000026,540.0000000000024,460.00000000000205,260.00000000000114,130.00000000000057
-20.00000000000009,-30.000000000000135,-20.00000000000009,30.000000000000135,-0.0,-30.000000000000135,70.00000000000031,610.0000000000027,560.0000000000025,490.00000000000216,280.00000000000125,140.00000000000063
-20.00000000000009,-40.00000000000018,-20.00000000000009,30.000000000000135,-0.0,-30.000000000000135,70.00000000000031,630.0000000000028,580.0000000000026,510.0000000000023,300.0000000000013,160.0000000000007
-20.00000000000009,-50.00000000000022,-30.000000000000135,30.000000000000135,-0.0,-40.00000000000018,70.00000000000031,650.0000000000028,600.0000000000026,530.0000000000024,320.0000000000014,170.00000000000077
-20.00000000000009,-50.00000000000022,-30.000000000000135,30.000000000000135,-0.0,-40.00000000000018,70.00000000000031,670.000000000003,620.0000000000027,540.0000000000024,340.00000000000153,190.00000000000085
-20.00000000000009,-60.00000000000027,-50.00000000000022,40.00000000000018,-0.0,-60.00000000000027,70.00000000000031,680.0000000000031,630.0000000000028,560.0000000000025,360.0000000000016,200.00000000000088
-10.000000000000044,-70.00000000000031,-60.00000000000027,40.00000000000018,10.000000000000044,-60.00000000000027,60.00000000000027,690.0000000000031,640.0000000000028,570.0000000000025,370.00000000000165,210.00000000000094
-0.0,-500.0000000000022,-70.00000000000031,30.000000000000135,30.000000000000135,-70.00000000000031,60.00000000000027,700.0000000000031,650.0000000000028,580.0000000000026,390.0000000000017,230.00000000000102
20.00000000000009,-500.0000000000022,-80.00000000000036,10.000000000000044,50.00000000000022,-70.00000000000031,60.00000000000027,710.0000000000032,650.0000000000028,590.0000000000026,400.00000000000176,240.00000000000108
70.00000000000031,-500.0000000000022,-90.0000000000004,-20.00000000000009,80.00000000000036,-50.00000000000022,50.00000000000022,700.0000000000031,660.000000000003,600.0000000000026,410.0000000000018,250.0000000000011
130.00000000000057,-500.0000000000022,-80.00000000000036,-90.0000000000004,100.00000000000044,-10.000000000000044,50.00000000000022,700.0000000000031,650.0000000000028,600.0000000000026,420.0000000000019,260.00000000000114
200.00000000000088,-500.0000000000022,-50.00000000000022,-220.00000000000097,120.00000000000054,50.00000000000022,40.00000000000018,680.0000000000031,640.0000000000028,590.0000000000026,430.00000000000193,260.00000000000114
290.0000000000013,-500.0000000000022,-0.0,-300.0000000000013,140.00000000000063,140.00000000000063,30.000000000000135,660.000000000003,630.0000000000028,580.0000000000026,430.00000000000193,270.0000000000012
370.00000000000165,-500.0000000000022,60.00000000000027,-400.00000000000176,140.00000000000063,250.0000000000011,30.000000000000135,640.0000000000028,610.0000000000027,570.0000000000025,420.0000000000019,270.0000000000012
430.00000000000193,-500.0000000000022,150.00000000000065,-510.0000000000023,130.00000000000057,360.0000000000016,20.00000000000009,610.0000000000027,580.0000000000026,550.0000000000024,420.0000000000019,270.0000000000012
460.00000000000205,-500.0000000000022,240.00000000000108,-590.0000000000026,100.00000000000044,460.00000000000205,20.00000000000009,570.0000000000025,540.0000000000024,520.0000000000023,400.00000000000176,260.00000000000114
450.000000000002,-500.0000000000022,320.0000000000014,-620.0000000000027,60.00000000000027,540.0000000000024,10.000000000000044,530.0000000000024,500.0000000000022,490.00000000000216,380.0000000000017,250.0000000000011
410.0000000000018,-500.0000000000022,380.0000000000017,-610.0000000000027,10.000000000000044,590.0000000000026,10.000000000000044,490.00000000000216,460.00000000000205,450.000000000002,360.0000000000016,240.00000000000108
340.00000000000153,-500.0000000000022,410.0000000000018,-550.0000000000024,-40.00000000000018,590.0000000000026,-0.0,450.000000000002,420.0000000000019,410.0000000000018,340.00000000000153,230.00000000000102
260.00000000000114,-500.0000000000022,420.0000000000019,-480.00000000000216,-80.00000000000036,550.0000000000024,-0.0,410.0000000000018,380.0000000000017,370.00000000000165,320.0000000000014,210.00000000000094
170.00000000000077,-500.0000000000022,410.0000000000018,-390.0000000000017,-110.00000000000048,490.00000000000216,-0.0,360.0000000000016,330.0000000000015,330.0000000000015,290.0000000000013,200.00000000000088
90.0000000000004,-500.0000000000022,370.00000000000165,-290.0000000000013,-140.00000000000063,410.0000000000018,-0.0,310.00000000000136,290.0000000000013,290.0000000000013,260.00000000000114,180.0000000000008
30.000000000000135,-500.0000000000022,320.0000000000014,-200.00000000000088,-140.00000000000063,330.0000000000015,-0.0,270.0000000000012,240.00000000000108,240.00000000000108,230.00000000000102,160.0000000000007
-10.000000000000044,-500.0000000000022,260.00000000000114,-120.00000000000054,-140.00000000000063,250.0000000000011,-0.0,230.00000000000102,200.00000000000088,210.00000000000094,200.00000000000088,140.00000000000063
-40.00000000000018,-500.0000000000022,200.00000000000088,-60.00000000000027,-120.00000000000054,180.0000000000008,-0.0,190.00000000000085,170.00000000000077,170.00000000000077,170.00000000000077,120.00000000000054
-50.00000000000022,-500.0000000000022,150.00000000000065,-20.00000000000009,-100.00000000000044,120.00000000000054,-0.0,160.0000000000007,140.00000000000063,140.00000000000063,140.00000000000063,100.00000000000044
-50.00000000000022,-500.0000000000022,110.00000000000048,-0.0,-90.0000000000004,80.00000000000036,-0.0,130.00000000000057,110.00000000000048,110.00000000000048,110.00000000000048,80.00000000000036
-50.00000000000022,-500.0000000000022,80.00000000000036,-0.0,-70.00000000000031,50.00000000000022,-0.0,100.00000000000044,90.0000000000004,90.0000000000004,90.0000000000004,60.00000000000027
-40.00000000000018,-500.0000000000022,50.00000000000022,10.000000000000044,-50.00000000000022,30.000000000000135,-0.0,80.00000000000036,70.00000000000031,70.00000000000031,70.00000000000031,50.00000000000022
-30.000000000000135,-500.0000000000022,30.000000000000135,10.000000000000044,-40.00000000000018,10.000000000000044,-0.0,60.00000000000027,50.00000000000022,50.00000000000022,50.00000000000022,30.000000000000135
-30.000000000000135,-500.0000000000022,20.00000000000009,10.000000000000044,-30.000000000000135,10.000000000000044,-0.0,40.00000000000018,40.00000000000018,40.00000000000018,40.00000000000018,20.00000000000009
-30.000000000000135,-500.0000000000022,10.000000000000044,10.000000000000044,-20.00000000000009,-0.0,-0.0,30.000000000000135,20.00000000000009,30.000000000000135,30.000000000000135,20.00000000000009
-30.000000000000135,-500.0000000000022,10.000000000000044,20.00000000000009,-20.00000000000009,-0.0,-0.0,20.00000000000009,20.00000000000009,20.00000000000009,20.00000000000009,10.000000000000044
-30.000000000000135,-500.0000000000022,-0.0,20.00000000000009,-20.00000000000009,-0.0,-0.0,10.000000000000044,10.000000000000044,10.000000000000044,10.000000000000044,-0.0
-30.000000000000135,-500.0000000000022,-0.0,20.00000000000009,-10.000000000000044,-10.000000000000044,-0.0,10.000000000000044,-0.0,-0.0,-0.0,-0.0
-20.00000000000009,-500.0000000000022,-0.0,20.00000000000009,-10.000000000000044,-10.000000000000044,-0.0,-0.0,-0.0,-0.0,-0.0,-0.0
-20.00000000000009,-500.0000000000022,-0.0,20.00000000000009,-0.0,-10.000000000000044,-0.0,-0.0,-0.0,-0.0,-0.0,-0.0
-10.000000000000044,-500.0000000000022,-0.0,20.00000000000009,-0.0,-10.000000000000044,-0.0,-0.0,-0.0,-0.0,-0.0,-0.0
-10.000000000000044,-500.0000000000022,-10.000000000000044,10.000000000000044,-0.0,-10.000000000000044,-0.0,-0.0,-0.0,-0.0,-0.0,-0.0
-0.0,-500.0000000000022,-10.000000000000044,10.000000000000044,-0.0,-10.000000000000044,-0.0,-0.0,-0.0,-0.0,-0.0,-0.0
-0.0,-20.00000000000009,-10.000000000000044,10.000000000000044,-0.0,-10.000000000000044,-0.0,-0.0,-0.0,-0.0,-10.000000000000044,-0.0
-0.0,-20.00000000000009,-10.000000000000044,10.000000000000044,-0.0,-20.00000000000009,-0.0,-0.0,-0.0,-0.0,-10.000000000000044,-0.0
-0.0,-20.00000000000009,-10.000000000000044,10.000000000000044,-0.0,-20.00000000000009,-0.0,-0.0,-0.0,-0.0,-10.000000000000044,-0.0
-0.0,-20.00000000000009,-10.000000000000044,10.000000000000044,-0.0,-10.000000000000044,-0.0,-0.0,-0.0,-0.0,-10.000000000000044,-0.0
-0.0,-20.00000000000009,-10.000000000000044,10.000000000000044,-0.0,-10.000000000000044,-0.0,-0.0,-0.0,-0.0,-10.000000000000044,-0.0
-0.0,-20.00000000000009,-10.000000000000044,10.000000000000044,-0.0,-10.000000000000044,-0.0,-0.0,-0.0,-0.0,-10.000000000000044,-0.0
-0.0,-20.00000000000009,-10.000000000000044,-0.0,-0.0,-10.000000000000044,-0.0,-0.0,-0.0,-0.0,-0.0,-0.0
-0.0,-10.000000000000044,-10.000000000000044,-0.0,-0.0,-10.000000000000044,-0.0,-0.0,-0.0,-0.0,-0.0,-0.0
-0.0,-10.000000000000044,-10.000000000000044,-0.0,-0.0,-10.000000000000044,-0.0,-0.0,-0.0,-0.0,-0.0,-0.0
-0.0,-10.000000000000044,-10.000000000000044,-0.0,-0.0,-0.0,-0.0,-0.0,-0.0,-0.0,-0.0,-0.0
10.000000000000044,-0.0,-10.000000000000044,-0.0,10.000000000000044,-0.0,-0.0,-0.0,-0.0,-0.0,-0.0,-0.0
10.000000000000044,-0.0,-10.000000000000044,-10.000000000000044,10.000000000000044,-0.0,-0.0,-0.0,-0.0,-0.0,-0.0,-0.0
20.00000000000009,-0.0,-10.000000000000044,-10.000000000000044,10.000000000000044,-0.0,-0.0,-0.0,-0.0,-0.0,-0.0,-0.0
30.000000000000135,-0.0,-10.000000000000044,-20.00000000000009,20.00000000000009,-0.0,-0.0,-0.0,-0.0,-0.0,-0.0,-0.0
30.000000000000135,10.000000000000044,-10.000000000000044,-20.00000000000009,20.00000000000009,-0.0,-0.0,10.000000000000044,-0.0,-0.0,-0.0,-0.0
40.00000000000018,10.000000000000044,-10.000000000000044,-30.000000000000135,20.00000000000009,-0.0,-0.0,10.000000000000044,-0.0,-0.0,-0.0,-0.0
40.00000000000018,20.00000000000009,-10.000000000000044,-40.00000000000018,20.00000000000009,-0.0,-0.0,10.000000000000044,10.000000000000044,-0.0,-0.0,-0.0
50.00000000000022,30.000000000000135,-10.000000000000044,-40.00000000000018,20.00000000000009,10.000000000000044,-0.0,10.000000000000044,-0.0,-0.0,-0.0,-0.0
50.00000000000022,30.000000000000135,-0.0,-50.00000000000022,20.00000000000009,10.000000000000044,-0.0,10.000000000000044,-0.0,-0.0,-0.0,-0.0
50.00000000000022,40.00000000000018,-0.0,-50.00000000000022,30.000000000000135,20.00000000000009,-0.0,10.000000000000044,10.000000000000044,-0.0,-0.0,-0.0
60.00000000000027,50.00000000000022,-0.0,-60.00000000000027,30.000000000000135,30.000000000000135,-0.0,10.000000000000044,10.000000000000044,-0.0,-0.0,-0.0
70.00000000000031,60.00000000000027,-0.0,-70.00000000000031,30.000000000000135,30.000000000000135,-0.0,10.000000000000044,10.000000000000044,-0.0,-0.0,-0.0
70.00000000000031,70.00000000000031,-0.0,-80.00000000000036,30.000000000000135,40.00000000000018,-0.0,10.000000000000044,-0.0,-0.0,-0.0,-0.0
80.00000000000036,80.00000000000036,-0.0,-90.0000000000004,30.000000000000135,40.00000000000018,-0.0,10.000000000000044,-0.0,-0.0,-0.0,-0.0
90.0000000000004,90.0000000000004,-0.0,-100.00000000000044,40.00000000000018,50.00000000000022,-0.0,-0.0,-0.0,-0.0,-0.0,-0.0
100.00000000000044,100.00000000000044,-0.0,-110.00000000000048,40.00000000000018,60.00000000000027,-0.0,-0.0,-0.0,-0.0,-0.0,-0.0
110.00000000000048,110.00000000000048,-0.0,-120.00000000000054,50.00000000000022,60.00000000000027,-0.0,-0.0,-0.0,-0.0,-0.0,-0.0
120.00000000000054,120.00000000000054,10.000000000000044,-130.00000000000057,50.00000000000022,70.00000000000031,-0.0,-0.0,-0.0,-0.0,-0.0,-0.0
130.00000000000057,130.00000000000057,10.000000000000044,-140.00000000000063,50.00000000000022,80.00000000000036,-0.0,-0.0,-0.0,-0.0,-0.0,-0.0
130.00000000000057,140.00000000000063,20.00000000000009,-150.00000000000065,50.00000000000022,90.0000000000004,-0.0,-0.0,-0.0,-0.0,-0.0,-0.0
140.00000000000063,160.0000000000007,20.00000000000009,-160.0000000000007,60.00000000000027,90.0000000000004,-0.0,-0.0,-0.0,-0.0,-0.0,-0.0
150.00000000000065,170.00000000000077,20.00000000000009,-170.00000000000077,60.00000000000027,100.00000000000044,-0.0,-0.0,-10.000000000000044,-10.000000000000044,-0.0,-0.0
160.0000000000007,180.0000000000008,20.00000000000009,-180.0000000000008,60.00000000000027,100.00000000000044,-0.0,-0.0,-10.000000000000044,-10.000000000000044,-10.000000000000044,-10.000000000000044
170.00000000000077,190.00000000000085,30.000000000000135,-180.0000000000008,60.00000000000027,110.00000000000048,-0.0,-0.0,-10.000000000000044,-10.000000000000044,-10.000000000000044,-10.000000000000044
170.00000000000077,200.00000000000088,30.000000000000135,-190.00000000000085,70.00000000000031,120.00000000000054,-0.0,-0.0,-10.000000000000044,-20.00000000000009,-10.000000000000044,-10.000000000000044
180.0000000000008,210.00000000000094,30.000000000000135,-200.00000000000088,70.00000000000031,120.00000000000054,-0.0,-0.0,-20.00000000000009,-20.00000000000009,-20.00000000000009,-10.000000000000044
180.0000000000008,210.00000000000094,30.000000000000135,-200.00000000000088,70.00000000000031,120.00000000000054,-0.0,-0.0,-20.00000000000009,-20.00000000000009,-20.00000000000009,-10.000000000000044
190.00000000000085,220.00000000000097,30.000000000000135,-210.00000000000094,70.00000000000031,130.00000000000057,-0.0,-0.0,-20.00000000000009,-20.00000000000009,-20.00000000000009,-10.000000000000044
190.00000000000085,220.00000000000097,30.000000000000135,-210.00000000000094,70.00000000000031,130.00000000000057,-0.0,-10.000000000000044,-20.00000000000009,-20.00000000000009,-20.00000000000009,-10.000000000000044
190.00000000000085,230.00000000000102,40.00000000000018,-210.00000000000094,70.00000000000031,130.00000000000057,-0.0,-10.000000000000044,-20.00000000000009,-20.00000000000009,-20.00000000000009,-10.000000000000044
190.00000000000085,230.00000000000102,40.00000000000018,-210.00000000000094,70.00000000000031,130.00000000000057,-0.0,-0.0,-20.00000000000009,-30.000000000000135,-20.00000000000009,-20.00000000000009
180.0000000000008,230.00000000000102,40.00000000000018,-210.00000000000094,60.00000000000027,140.00000000000063,-0.0,-10.000000000000044,-20.00000000000009,-30.000000000000135,-20.00000000000009,-20.00000000000009
170.00000000000077,230.00000000000102,40.00000000000018,-200.00000000000088,60.00000000000027,130.00000000000057,-0.0,-10.000000000000044,-30.000000000000135,-30.000000000000135,-30.000000000000135,-20.00000000000009
170.00000000000077,220.00000000000097,40.00000000000018,-200.00000000000088,60.00000000000027,130.00000000000057,-0.0,-10.000000000000044,-30.000000000000135,-30.000000000000135,-30.000000000000135,-20.00000000000009
160.0000000000007,210.00000000000094,40.00000000000018,-190.00000000000085,50.00000000000022,120.00000000000054,-0.0,-10.000000000000044,-30.000000000000135,-30.000000000000135,-30.000000000000135,-20.00000000000009
140.00000000000063,210.00000000000094,40.00000000000018,-170.00000000000077,40.00000000000018,120.00000000000054,-0.0,-10.000000000000044,-30.000000000000135,-40.00000000000018,-30.000000000000135,-30.000000000000135
130.00000000000057,190.00000000000085,40.00000000000018,-160.0000000000007,40.00000000000018,110.00000000000048,-0.0,-20.00000000000009,-30.000000000000135,-40.00000000000018,-30.000000000000135,-30.000000000000135
120.00000000000054,180.0000000000008,40.00000000000018,-150.00000000000065,30.000000000000135,100.00000000000044,-0.0,-20.00000000000009,-40.00000000000018,-40.00000000000018,-30.000000000000135,-30.000000000000135
110.00000000000048,160.0000000000007,40.00000000000018,-130.00000000000057,30.000000000000135,90.0000000000004,-0.0,-20.00000000000009,-40.00000000000018,-40.00000000000018,-30.000000000000135,-30.000000000000135
100.00000000000044,150.00000000000065,30.000000000000135,-120.00000000000054,30.000000000000135,80.00000000000036,-0.0,-20.00000000000009,-40.00000000000018,-40.00000000000018,-30.000000000000135,-30.000000000000135
80.00000000000036,130.00000000000057,30.000000000000135,-100.00000000000044,20.00000000000009,70.00000000000031,-0.0,-30.000000000000135,-40.00000000000018,-50.00000000000022,-40.00000000000018,-30.000000000000135
70.00000000000031,110.00000000000048,20.00000000000009,-90.0000000000004,20.00000000000009,60.00000000000027,-0.0,-30.000000000000135,-40.00000000000018,-50.00000000000022,-40.00000000000018,-30.000000000000135
60.00000000000027,100.00000000000044,10.000000000000044,-80.00000000000036,20.00000000000009,50.00000000000022,-0.0,-30.000000000000135,-50.00000000000022,-50.00000000000022,-40.00000000000018,-30.000000000000135
50.00000000000022,80.00000000000036,10.000000000000044,-70.00000000000031,20.00000000000009,40.00000000000018,-0.0,-30.000000000000135,-50.00000000000022,-50.00000000000022,-40.00000000000018,-30.000000000000135
40.00000000000018,70.00000000000031,10.000000000000044,-50.00000000000022,10.000000000000044,30.000000000000135,-0.0,-30.000000000000135,-50.00000000000022,-50.00000000000022,-40.00000000000018,-30.000000000000135
40.00000000000018,60.00000000000027,-0.0,-40.00000000000018,10.000000000000044,20.00000000000009,-0.0,-30.000000000000135,-50.00000000000022,-50.00000000000022,-40.00000000000018,-30.000000000000135
30.000000000000135,40.00000000000018,-0.0,-30.000000000000135,10.000000000000044,20.00000000000009,-0.0,-30.000000000000135,-50.00000000000022,-50.00000000000022,-40.00000000000018,-30.000000000000135
20.00000000000009,30.000000000000135,-0.0,-30.000000000000135,10.000000000000044,10.000000000000044,-0.0,-30.000000000000135,-50.00000000000022,-50.00000000000022,-40.00000000000018,-30.000000000000135
20.00000000000009,20.00000000000009,-0.0,-20.00000000000009,-0.0,10.000000000000044,-0.0,-30.000000000000135,-50.00000000000022,-50.00000000000022,-40.00000000000018,-20.00000000000009
10.000000000000044,20.00000000000009,-0.0,-10.000000000000044,-0.0,10.000000000000044,-0.0,-30.000000000000135,-40.00000000000018,-50.00000000000022,-40.00000000000018,-20.00000000000009
10.000000000000044,10.000000000000044,-0.0,-10.000000000000044,-0.0,-0.0,-0.0,-30.000000000000135,-40.00000000000018,-40.00000000000018,-40.00000000000018,-20.00000000000009
-0.0,10.000000000000044,-0.0,-0.0,-0.0,-0.0,-0.0,-20.00000000000009,-40.00000000000018,-40.00000000000018,-40.00000000000018,-20.00000000000009
-0.0,-0.0,-0.0,-0.0,-0.0,-0.0,-0.0,-20.00000000000009,-30.000000000000135,-30.000000000000135,-30.000000000000135,-10.000000000000044
-0.0,-0.0,-0.0,-0.0,-0.0,-0.0,-0.0,-20.00000000000009,-30.000000000000135,-30.000000000000135,-30.000000000000135,-10.000000000000044
-0.0,-0.0,-0.0,-0.0,-0.0,-0.0,-0.0,-10.000000000000044,-20.00000000000009,-20.00000000000009,-20.00000000000009,-10.000000000000044
-0.0,-0.0,-0.0,-0.0,-0.0,-0.0,10.000000000000044,-0.0,-10.000000000000044,-10.000000000000044,-20.00000000000009,-0.0
-0.0,-0.0,-0.0,-0.0,-0.0,-0.0,10.000000000000044,-0.0,-0.0,-0.0,-10.000000000000044,-0.0
-0.0,-0.0,-0.0,-0.0,-0.0,-0.0,10.000000000000044,-0.0,-0.0,-0.0,-0.0,-0.0
-0.0,-0.0,-0.0,-0.0,-0.0,-0.0,10.000000000000044,-0.0,-0.0,-0.0,-0.0,-0.0
-0.0,-0.0,-0.0,-0.0,-0.0,-0.0,-0.0,10.000000000000044,-0.0,-0.0,-0.0,-0.0
-0.0,-0.0,-0.0,-0.0,-0.0,-0.0,-0.0,10.000000000000044,-0.0,10.000000000000044,-0.0,10.000000000000044
-0.0,-0.0,-0.0,-0.0,-0.0,-0.0,-0.0,10.000000000000044,-0.0,10.000000000000044,-0.0,10.000000000000044
-0.0,-0.0,-0.0,-0.0,-0.0,-0.0,-20.00000000000009,-0.0,-0.0,-0.0,10.000000000000044,20.00000000000009
-0.0,-0.0,-0.0,-0.0,-0.0,-0.0,-30.000000000000135,-0.0,-0.0,-0.0,10.000000000000044,20.00000000000009
-0.0,-0.0,-0.0,-0.0,-0.0,-0.0,-40.00000000000018,-10.000000000000044,-0.0,-0.0,10.000000000000044,30.000000000000135
-0.0,-0.0,-0.0,-0.0,-0.0,-0.0,-50.00000000000022,-20.00000000000009,-10.000000000000044,-0.0,10.000000000000044,30.000000000000135
-0.0,-0.0,-0.0,-0.0,-0.0,-0.0,-50.00000000000022,-30.000000000000135,-20.00000000000009,-10.000000000000044,10.000000000000044,40.00000000000018
-0.0,-0.0,-0.0,-0.0,-0.0,-0.0,-60.00000000000027,-40.00000000000018,-20.00000000000009,-20.00000000000009,-0.0,40.00000000000018
-0.0,-0.0,-0.0,-0.0,-0.0,-0.0,-60.00000000000027,-50.00000000000022,-30.000000000000135,-30.000000000000135,-0.0,40.00000000000018
-0.0,-0.0,-0.0,-0.0,-0.0,-0.0,-60.00000000000027,-60.00000000000027,-50.00000000000022,-40.00000000000018,-0.0,40.00000000000018
-0.0,-0.0,-0.0,-0.0,-0.0,-0.0,-60.00000000000027,-60.00000000000027,-60.00000000000027,-50.00000000000022,-0.0,30.000000000000135
-0.0,-0.0,-0.0,-0.0,-0.0,-0.0,-60.00000000000027,-70.00000000000031,-60.00000000000027,-60.00000000000027,-10.000000000000044,30.000000000000135
-0.0,-0.0,-0.0,-0.0,-0.0,-0.0,-60.00000000000027,-70.00000000000031,-70.00000000000031,-70.00000000000031,-20.00000000000009,20.00000000000009
-0.0,-0.0,-0.0,-0.0,-0.0,-0.0,-50.00000000000022,-70.00000000000031,-80.00000000000036,-70.00000000000031,-30.000000000000135,10.000000000000044
-0.0,-0.0,-0.0,-0.0,-0.0,-0.0,-40.00000000000018,-70.00000000000031,-80.00000000000036,-80.00000000000036,-30.000000000000135,-0.0
-0.0,-0.0,-0.0,-0.0,-0.0,-0.0,-40.00000000000018,-70.00000000000031,-90.0000000000004,-90.0000000000004,-40.00000000000018,-0.0
-0.0,-0.0,-0.0,-0.0,-0.0,-0.0,-30.000000000000135,-70.00000000000031,-90.0000000000004,-100.00000000000044,-50.00000000000022,-10.000000000000044
-0.0,-0.0,-0.0,-0.0,-0.0,-0.0,-20.00000000000009,-70.00000000000031,-90.0000000000004,-100.00000000000044,-50.00000000000022,-10.000000000000044
-0.0,-0.0,-0.0,-0.0,-0.0,-0.0,-10.000000000000044,-70.00000000000031,-90.0000000000004,-100.00000000000044,-50.00000000000022,-20.00000000000009
-0.0,-0.0,-0.0,-0.0,-0.0,-0.0,-10.000000000000044,-70.00000000000031,-90.0000000000004,-90.0000000000004,-50.00000000000022,-20.00000000000009
-0.0,-0.0,-0.0,-0.0,-0.0,-0.0,-0.0,-70.00000000000031,-90.0000000000004,-90.0000000000004,-50.00000000000022,-10.000000000000044
-0.0,-0.0,-0.0,-0.0,-0.0,-0.0,-0.0,-70.00000000000031,-100.00000000000044,-90.0000000000004,-50.00000000000022,-10.000000000000044
-0.0,-0.0,-0.0,-0.0,-0.0,-0.0,-0.0,-70.00000000000031,-100.00000000000044,-90.0000000000004,-50.00000000000022,-10.000000000000044
-0.0,-0.0,-0.0,-0.0,-0.0,-0.0,-0.0,-70.00000000000031,-100.00000000000044,-90.0000000000004,-50.00000000000022,-20.00000000000009
-0.0,-0.0,-0.0,-0.0,-0.0,-0.0,-0.0,-70.00000000000031,-70.00000000000031,-60.00000000000027,-50.00000000000022,-20.00000000000009
-0.0,-0.0,-0.0,-0.0,-0.0,-0.0,-0.0,-50.00000000000022,-30.000000000000135,-20.00000000000009,-40.00000000000018,-20.00000000000009
-0.0,-0.0,-0.0,-0.0,-0.0,-0.0,-0.0,-20.00000000000009,20.00000000000009,50.00000000000022,-10.000000000000044,-10.000000000000044
-0.0,-0.0,-0.0,-0.0,-0.0,-0.0,-0.0,-0.0,100.00000000000044,180.0000000000008,60.00000000000027,40.00000000000018
-0.0,-0.0,-0.0,-0.0,-0.0,-0.0,-10.000000000000044,20.00000000000009,190.00000000000085,340.00000000000153,200.00000000000088,140.00000000000063
-0.0,-0.0,-0.0,-0.0,-0.0,-0.0,-50.00000000000022,20.00000000000009,260.00000000000114,510.0000000000023,420.0000000000019,300.0000000000013
-0.0,-0.0,-0.0,-0.0,-0.0,-0.0,-110.00000000000048,-30.000000000000135,300.0000000000013,680.0000000000031,700.0000000000031,530.0000000000024
-0.0,-0.0,-0.0,-0.0,-0.0,-0.0,-190.00000000000085,-120.00000000000054,280.00000000000125,810.0000000000036,1020.0000000000045,800.0000000000035
-0.0,-0.0,-0.0,-0.0,-0.0,-0.0,-300.0000000000013,-280.00000000000125,200.00000000000088,870.0000000000039,1320.000000000006,1080.0000000000048
-0.0,-0.0,-0.0,-0.0,-0.0,-0.0,-410.0000000000018,-500.0000000000022,60.00000000000027,810.0000000000036,1550.0000000000068,1320.000000000006
-0.0,-0.0,-0.0,-0.0,-0.0,-0.0,-520.0000000000023,-740.0000000000033,-130.00000000000057,650.0000000000028,1670.0000000000075,1470.0000000000066
-0.0,-0.0,-0.0,-0.0,-0.0,-0.0,-600.0000000000026,-960.0000000000043,-340.00000000000153,430.00000000000193,1620.0000000000073,1530.0000000000068
-0.0,-0.0,-0.0,-0.0,-0.0,-0.0,-650.0000000000028,-1150.000000000005,-540.0000000000024,180.0000000000008,1460.0000000000066,1460.0000000000066
-0.0,-0.0,-0.0,-0.0,-0.0,-0.0,-670.000000000003,-1280.0000000000057,-690.0000000000031,-60.00000000000027,1210.0000000000055,1310.000000000006
-0.0,-0.0,-0.0,-0.0,-0.0,-0.0,-650.0000000000028,-1350.000000000006,-780.0000000000034,-260.00000000000114,910.0000000000041,1100.0000000000048
-0.0,-0.0,-0.0,-0.0,-0.0,-0.0,-590.0000000000026,-1320.000000000006,-820.0000000000036,-400.00000000000176,610.0000000000027,860.0000000000039
-0.0,-0.0,-0.0,-0.0,-0.0,-0.0,-520.0000000000023,-1220.0000000000055,-780.0000000000034,-480.00000000000216,340.00000000000153,630.0000000000028
-0.0,-10.000000000000044,-0.0,-0.0,-0.0,-0.0,-430.00000000000193,-1070.0000000000048,-690.0000000000031,-480.00000000000216,130.00000000000057,420.0000000000019
-0.0,-10.000000000000044,-0.0,-0.0,-0.0,-10.000000000000044,-340.00000000000153,-890.000000000004,-580.0000000000026,-440.00000000000193,-20.00000000000009,250.0000000000011
-0.0,-10.000000000000044,-0.0,10.000000000000044,-0.0,-10.000000000000044,-250.0000000000011,-700.0000000000031,-450.000000000002,-380.0000000000017,-100.00000000000044,120.00000000000054
-0.0,-10.000000000000044,-0.0,10.000000000000044,-0.0,-10.000000000000044,-170.00000000000077,-520.0000000000023,-330.0000000000015,-290.0000000000013,-140.00000000000063,30.000000000000135
-0.0,-10.000000000000044,-0.0,10.000000000000044,-0.0,-10.000000000000044,-110.00000000000048,-360.0000000000016,-230.00000000000102,-200.00000000000088,-130.00000000000057,-0.0
-0.0,-10.000000000000044,-10.000000000000044,10.000000000000044,-0.0,-10.000000000000044,-60.00000000000027,-230.00000000000102,-140.00000000000063,-130.00000000000057,-100.00000000000044,-10.000000000000044
-0.0,-10.000000000000044,-10.000000000000044,10.000000000000044,-0.0,-10.000000000000044,-20.00000000000009,-130.00000000000057,-80.00000000000036,-80.00000000000036,-60.00000000000027,-10.000000000000044
-0.0,-10.000000000000044,-0.0,10.000000000000044,-0.0,-10.000000000000044,-0.0,-60.00000000000027,-30.000000000000135,-40.00000000000018,-40.00000000000018,-10.000000000000044
-0.0,-10.000000000000044,-10.000000000000044,10.000000000000044,-0.0,-10.000000000000044,10.000000000000044,-10.000000000000044,-10.000000000000044,-20.00000000000009,-30.000000000000135,-20.00000000000009
-0.0,-10.000000000000044,-10.000000000000044,-0.0,-0.0,-10.000000000000044,20.00000000000009,30.000000000000135,-0.0,-10.000000000000044,-30.000000000000135,-30.000000000000135
-0.0,-10.000000000000044,-10.000000000000044,-0.0,-0.0,-10.000000000000044,40.00000000000018,50.00000000000022,20.00000000000009,-0.0,-30.000000000000135,-40.00000000000018
-0.0,-10.000000000000044,-10.000000000000044,-0.0,-0.0,-10.000000000000044,50.00000000000022,70.00000000000031,30.000000000000135,-0.0,-30.000000000000135,-40.00000000000018
-0.0,-10.000000000000044,-10.000000000000044,-0.0,-0.0,-10.000000000000044,60.00000000000027,90.0000000000004,40.00000000000018,10.000000000000044,-20.00000000000009,-40.00000000000018
-0.0,-10.000000000000044,-10.000000000000044,-0.0,-0.0,-10.000000000000044,60.00000000000027,100.00000000000044,60.00000000000027,20.00000000000009,-20.00000000000009,-40.00000000000018
-0.0,-10.000000000000044,-10.000000000000044,10.000000000000044,-0.0,-10.000000000000044,70.00000000000031,120.00000000000054,70.00000000000031,30.000000000000135,-10.000000000000044,-30.000000000000135
-0.0,-10.000000000000044,-10.000000000000044,10.000000000000044,-0.0,-10.000000000000044,70.00000000000031,130.00000000000057,80.00000000000036,40.00000000000018,-0.0,-30.000000000000135
-0.0,-10.000000000000044,-10.000000000000044,10.000000000000044,-0.0,-10.000000000000044,80.00000000000036,140.00000000000063,90.0000000000004,50.00000000000022,-0.0,-30.000000000000135
-0.0,-10.000000000000044,-10.000000000000044,10.000000000000044,-0.0,-10.000000000000044,80.00000000000036,150.00000000000065,100.00000000000044,50.00000000000022,-0.0,-30.000000000000135
-0.0,-10.000000000000044,-10.000000000000044,10.000000000000044,-0.0,-10.000000000000044,80.00000000000036,160.0000000000007,110.00000000000048,60.00000000000027,-0.0,-20.00000000000009
-0.0,-10.000000000000044,-10.000000000000044,10.000000000000044,-0.0,-10.000000000000044,80.00000000000036,170.00000000000077,120.00000000000054,70.00000000000031,-0.0,-20.00000000000009
-0.0,-10.000000000000044,-10.000000000000044,10.000000000000044,-0.0,-10.000000000000044,80.00000000000036,180.0000000000008,130.00000000000057,80.00000000000036,10.000000000000044,-20.00000000000009
-0.0,-10.000000000000044,-10.000000000000044,10.000000000000044,-0.0,-10.000000000000044,80.00000000000036,180.0000000000008,130.00000000000057,90.0000000000004,10.000000000000044,-20.00000000000009
-0.0,-10.000000000000044,-0.0,10.000000000000044,-0.0,-10.000000000000044,80.00000000000036,190.00000000000085,150.00000000000065,100.00000000000044,20.00000000000009,-20.00000000000009
-0.0,-10.000000000000044,-10.000000000000044,-0.0,-0.0,-10.000000000000044,80.00000000000036,200.00000000000088,160.0000000000007,110.00000000000048,20.00000000000009,-20.00000000000009
-0.0,-10.000000000000044,-0.0,-0.0,-0.0,-10.000000000000044,80.00000000000036,210.00000000000094,160.0000000000007,120.00000000000054,30.000000000000135,-20.00000000000009
-0.0,-10.000000000000044,-0.0,-0.0,-0.0,-0.0,80.00000000000036,220.00000000000097,170.00000000000077,130.00000000000057,40.00000000000018,-10.000000000000044
-0.0,-10.000000000000044,-0.0,-0.0,-0.0,-0.0,80.00000000000036,230.00000000000102,190.00000000000085,140.00000000000063,50.00000000000022,-10.000000000000044
-0.0,-0.0,-0.0,-0.0,-0.0,-0.0,80.00000000000036,240.00000000000108,200.00000000000088,150.00000000000065,60.00000000000027,-10.000000000000044
-0.0,-0.0,-0.0,-0.0,-0.0,-0.0,80.00000000000036,250.0000000000011,210.00000000000094,160.0000000000007,60.00000000000027,-0.0
10.000000000000044,-0.0,-0.0,-10.000000000000044,-0.0,10.000000000000044,80.00000000000036,260.00000000000114,220.00000000000097,180.0000000000008,70.00000000000031,-0.0
10.000000000000044,20.00000000000009,10.000000000000044,-20.00000000000009,-0.0,20.00000000000009,80.00000000000036,280.00000000000125,230.00000000000102,190.00000000000085,80.00000000000036,-0.0
20.00000000000009,30.000000000000135,20.00000000000009,-40.00000000000018,-0.0,30.000000000000135,80.00000000000036,290.0000000000013,250.0000000000011,200.00000000000088,90.0000000000004,-0.0
20.00000000000009,40.00000000000018,30.000000000000135,-50.00000000000022,-0.0,40.00000000000018,80.00000000000036,310.00000000000136,260.00000000000114,210.00000000000094,100.00000000000044,-0.0
30.000000000000135,60.00000000000027,40.00000000000018,-60.00000000000027,-0.0,60.00000000000027,80.00000000000036,320.0000000000014,280.00000000000125,230.00000000000102,100.00000000000044,10.000000000000044
30.000000000000135,70.00000000000031,50.00000000000022,-60.00000000000027,-0.0,70.00000000000031,80.00000000000036,340.00000000000153,300.0000000000013,240.00000000000108,110.00000000000048,10.000000000000044
40.00000000000018,90.0000000000004,60.00000000000027,-70.00000000000031,-10.000000000000044,80.00000000000036,80.00000000000036,350.00000000000153,320.0000000000014,260.00000000000114,130.00000000000057,20.00000000000009
40.00000000000018,100.00000000000044,70.00000000000031,-80.00000000000036,-10.000000000000044,90.0000000000004,80.00000000000036,370.00000000000165,340.00000000000153,290.0000000000013,140.00000000000063,30.000000000000135
40.00000000000018,110.00000000000048,80.00000000000036,-90.0000000000004,-10.000000000000044,100.00000000000044,70.00000000000031,400.00000000000176,370.00000000000165,310.00000000000136,160.0000000000007,40.00000000000018
40.00000000000018,120.00000000000054,90.0000000000004,-90.0000000000004,-20.00000000000009,110.00000000000048,70.00000000000031,420.0000000000019,390.0000000000017,330.0000000000015,170.00000000000077,50.00000000000022
50.00000000000022,130.00000000000057,90.0000000000004,-90.0000000000004,-10.000000000000044,110.00000000000048,70.00000000000031,440.00000000000193,420.0000000000019,360.0000000000016,190.00000000000085,60.00000000000027
50.00000000000022,140.00000000000063,80.00000000000036,-90.0000000000004,-10.000000000000044,110.00000000000048,70.00000000000031,470.0000000000021,440.00000000000193,380.0000000000017,210.00000000000094,70.00000000000031
50.00000000000022,140.00000000000063,80.00000000000036,-100.00000000000044,-10.000000000000044,100.00000000000044,70.00000000000031,490.00000000000216,470.0000000000021,400.00000000000176,220.00000000000097,90.0000000000004
60.00000000000027,140.00000000000063,70.00000000000031,-100.00000000000044,-0.0,100.00000000000044,70.00000000000031,520.0000000000023,500.0000000000022,430.00000000000193,240.00000000000108,100.00000000000044
60.00000000000027,130.00000000000057,60.00000000000027,-90.0000000000004,-0.0,90.0000000000004,70.00000000000031,540.0000000000024,520.0000000000023,460.00000000000205,260.00000000000114,110.00000000000048
60.00000000000027,120.00000000000054,40.00000000000018,-90.0000000000004,-0.0,70.00000000000031,70.00000000000031,570.0000000000025,540.0000000000024,480.00000000000216,290.0000000000013,120.00000000000054
50.00000000000022,100.00000000000044,30.000000000000135,-70.00000000000031,-0.0,60.00000000000027,70.00000000000031,590.0000000000026,570.0000000000025,500.0000000000022,310.00000000000136,140.00000000000063
50.00000000000022,90.0000000000004,10.000000000000044,-60.00000000000027,10.000000000000044,40.00000000000018,70.00000000000031,610.0000000000027,590.0000000000026,520.0000000000023,320.0000000000014,160.0000000000007
40.00000000000018,70.00000000000031,-0.0,-50.00000000000022,10.000000000000044,20.00000000000009,70.00000000000031,630.0000000000028,610.0000000000027,550.0000000000024,350.00000000000153,170.00000000000077
20.00000000000009,50.00000000000022,-0.0,-30.000000000000135,10.000000000000044,10.000000000000044,70.00000000000031,650.0000000000028,630.0000000000028,570.0000000000025,370.00000000000165,190.00000000000085
10.000000000000044,30.000000000000135,-0.0,-20.00000000000009,-0.0,-0.0,60.00000000000027,660.000000000003,640.0000000000028,580.0000000000026,380.0000000000017,200.00000000000088
-0.0,10.000000000000044,-0.0,-0.0,-0.0,-0.0,60.00000000000027,680.0000000000031,660.000000000003,600.0000000000026,400.00000000000176,210.00000000000094
-0.0,-0.0,-10.000000000000044,-0.0,-0.0,-10.000000000000044,60.00000000000027,690.0000000000031,670.000000000003,610.0000000000027,420.0000000000019,230.00000000000102
-0.0,-10.000000000000044,-20.00000000000009,-0.0,-0.0,-20.00000000000009,50.00000000000022,690.0000000000031,670.000000000003,610.0000000000027,430.00000000000193,240.00000000000108
-0.0,-20.00000000000009,-20.00000000000009,10.000000000000044,-0.0,-30.000000000000135,40.00000000000018,690.0000000000031,670.000000000003,620.0000000000027,440.00000000000193,250.0000000000011
-0.0,-30.000000000000135,-30.000000000000135,20.00000000000009,-0.0,-30.000000000000135,40.00000000000018,690.0000000000031,660.000000000003,610.0000000000027,450.000000000002,260.00000000000114
-10.000000000000044,-40.00000000000018,-30.000000000000135,20.00000000000009,10.000000000000044,-40.00000000000018,30.000000000000135,670.000000000003,650.0000000000028,600.0000000000026,450.000000000002,270.0000000000012
-10.000000000000044,-40.00000000000018,-40.00000000000018,30.000000000000135,10.000000000000044,-40.00000000000018,30.000000000000135,650.0000000000028,630.0000000000028,590.0000000000026,450.000000000002,270.0000000000012
-10.000000000000044,-50.00000000000022,-40.00000000000018,30.000000000000135,10.000000000000044,-50.00000000000022,20.00000000000009,630.0000000000028,610.0000000000027,570.0000000000025,450.000000000002,280.00000000000125
-10.000000000000044,-60.00000000000027,-50.00000000000022,30.000000000000135,10.000000000000044,-60.00000000000027,10.000000000000044,610.0000000000027,580.0000000000026,550.0000000000024,440.00000000000193,280.00000000000125
-0.0,-60.00000000000027,-70.00000000000031,30.000000000000135,20.00000000000009,-70.00000000000031,10.000000000000044,570.0000000000025,540.0000000000024,520.0000000000023,430.00000000000193,280.00000000000125
-0.0,-70.00000000000031,-80.00000000000036,20.00000000000009,40.00000000000018,-70.00000000000031,-0.0,530.0000000000024,510.0000000000023,490.00000000000216,420.0000000000019,280.00000000000125
30.000000000000135,-70.00000000000031,-90.0000000000004,-0.0,60.00000000000027,-70.00000000000031,-0.0,490.00000000000216,470.0000000000021,450.000000000002,400.00000000000176,270.0000000000012
80.00000000000036,-50.00000000000022,-90.0000000000004,-30.000000000000135,90.0000000000004,-50.00000000000022,-0.0,450.000000000002,430.00000000000193,410.0000000000018,370.00000000000165,260.00000000000114
140.00000000000063,-10.000000000000044,-90.0000000000004,-100.00000000000044,110.00000000000048,-10.000000000000044,-0.0,410.0000000000018,380.0000000000017,370.00000000000165,350.00000000000153,240.00000000000108
220.00000000000097,50.00000000000022,-60.00000000000027,-190.00000000000085,140.00000000000063,50.00000000000022,-0.0,360.0000000000016,340.00000000000153,330.0000000000015,320.0000000000014,220.00000000000097
300.0000000000013,150.00000000000065,-20.00000000000009,-300.0000000000013,150.00000000000065,130.00000000000057,-0.0,320.0000000000014,290.0000000000013,290.0000000000013,290.0000000000013,210.00000000000094
380.0000000000017,290.0000000000013,50.00000000000022,-410.0000000000018,160.0000000000007,240.00000000000108,-0.0,270.0000000000012,250.0000000000011,250.0000000000011,250.0000000000011,190.00000000000085
440.00000000000193,440.00000000000193,130.00000000000057,-510.0000000000023,150.00000000000065,360.0000000000016,-0.0,230.00000000000102,210.00000000000094,210.00000000000094,220.00000000000097,160.0000000000007
470.0000000000021,580.0000000000026,220.00000000000097,-590.0000000000026,110.00000000000048,460.00000000000205,-0.0,190.00000000000085,180.0000000000008,180.0000000000008,190.00000000000085,140.00000000000063
460.00000000000205,700.0000000000031,300.0000000000013,-630.0000000000028,70.00000000000031,540.0000000000024,-0.0,160.0000000000007,150.00000000000065,150.00000000000065,160.0000000000007,130.00000000000057
420.0000000000019,780.0000000000034,370.00000000000165,-610.0000000000027,20.00000000000009,580.0000000000026,-0.0,130.00000000000057,120.00000000000054,120.00000000000054,130.00000000000057,110.00000000000048
350.00000000000153,800.0000000000035,410.0000000000018,-560.0000000000025,-30.000000000000135,590.0000000000026,-0.0,100.00000000000044,90.0000000000004,90.0000000000004,110.00000000000048,90.0000000000004
260.00000000000114,760.0000000000034,420.0000000000019,-480.00000000000216,-80.00000000000036,550.0000000000024,-0.0,80.00000000000036,70.00000000000031,70.00000000000031,90.0000000000004,80.00000000000036
180.0000000000008,690.0000000000031,410.0000000000018,-390.0000000000017,-110.00000000000048,500.0000000000022,-0.0,60.00000000000027,50.00000000000022,50.00000000000022,70.00000000000031,70.00000000000031
100.00000000000044,590.0000000000026,370.00000000000165,-290.0000000000013,-140.00000000000063,420.0000000000019,-0.0,40.00000000000018,40.00000000000018,40.00000000000018,50.00000000000022,60.00000000000027
30.000000000000135,470.0000000000021,320.0000000000014,-200.00000000000088,-140.00000000000063,340.00000000000153,-0.0,30.000000000000135,30.000000000000135,30.000000000000135,40.00000000000018,50.00000000000022
-10.000000000000044,360.0000000000016,260.00000000000114,-130.00000000000057,-140.00000000000063,260.00000000000114,-0.0,20.00000000000009,20.00000000000009,20.00000000000009,30.000000000000135,40.00000000000018
-30.000000000000135,260.00000000000114,200.00000000000088,-70.00000000000031,-120.00000000000054,190.00000000000085,-0.0,10.000000000000044,10.000000000000044,10.000000000000044,20.00000000000009,40.00000000000018
-40.00000000000018,170.00000000000077,150.00000000000065,-30.000000000000135,-100.00000000000044,130.00000000000057,-0.0,-0.0,-0.0,10.000000000000044,10.000000000000044,30.000000000000135
-40.00000000000018,100.00000000000044,100.00000000000044,-10.000000000000044,-80.00000000000036,80.00000000000036,-0.0,-0.0,-0.0,-0.0,10.000000000000044,30.000000000000135
-40.00000000000018,60.00000000000027,70.00000000000031,-0.0,-60.00000000000027,50.00000000000022,-0.0,-0.0,-0.0,-0.0,10.000000000000044,20.00000000000009
-30.000000000000135,30.000000000000135,40.00000000000018,-0.0,-40.00000000000018,30.000000000000135,-0.0,-0.0,-0.0,-0.0,-0.0,20.00000000000009
-20.00000000000009,10.000000000000044,30.000000000000135,-0.0,-30.000000000000135,20.00000000000009,-0.0,-0.0,-0.0,-0.0,-0.0,20.00000000000009
-20.00000000000009,-0.0,10.000000000000044,-0.0,-20.00000000000009,-0.0,-0.0,-0.0,-0.0,-0.0,-0.0,10.000000000000044
-10.000000000000044,-0.0,10.000000000000044,-0.0,-10.000000000000044,-0.0,-0.0,-10.000000000000044,-0.0,-0.0,-0.0,10.000000000000044
-10.000000000000044,-0.0,-0.0,10.000000000000044,-10.000000000000044,-0.0,-0.0,-10.000000000000044,-0.0,-0.0,-0.0,10.000000000000044
-20.00000000000009,-0.0,-0.0,10.000000000000044,-10.000000000000044,-0.0,-0.0,-10.000000000000044,-0.0,-0.0,-0.0,10.000000000000044
-20.00000000000009,-10.000000000000044,-0.0,10.000000000000044,-10.000000000000044,-0.0,-0.0,-0.0,-0.0,-0.0,-0.0,10.000000000000044
-20.00000000000009,-20.00000000000009,-0.0,20.00000000000009,-0.0,-10.000000000000044,-0.0,-0.0,-0.0,-0.0,-0.0,10.000000000000044
-10.000000000000044,-20.00000000000009,-0.0,10.000000000000044,-0.0,-10.000000000000044,-0.0,-0.0,-0.0,-0.0,-0.0,-0.0
-10.000000000000044,-20.00000000000009,-0.0,10.000000000000044,-0.0,-10.000000000000044,-0.0,-0.0,-0.0,-0.0,-0.0,-0.0
-10.000000000000044,-20.00000000000009,-0.0,10.000000000000044,-0.0,-10.000000000000044,-0.0,-0.0,-0.0,-0.0,-0.0,-0.0
-10.000000000000044,-20.00000000000009,-0.0,10.000000000000044,-0.0,-10.000000000000044,-0.0,-0.0,-0.0,-0.0,-0.0,-0.0
-10.000000000000044,-20.00000000000009,-0.0,10.000000000000044,-0.0,-10.000000000000044,-0.0,-0.0,-0.0,-0.0,-0.0,-0.0
-0.0,-20.00000000000009,-0.0,10.000000000000044,-0.0,-10.000000000000044,-0.0,-0.0,-0.0,-0.0,-0.0,-0.0
-0.0,-10.000000000000044,-0.0,-0.0,-0.0,-0.0,-0.0,-0.0,-0.0,-0.0,-0.0,-0.0
-0.0,-10.000000000000044,-0.0,-0.0,-0.0,-0.0,-0.0,-0.0,10.000000000000044,-0.0,-0.0,10.000000000000044
-0.0,-10.000000000000044,-0.0,-0.0,-0.0,-0.0,-0.0,-0.0,10.000000000000044,-0.0,-0.0,10.000000000000044
-0.0,-0.0,-0.0,-0.0,-0.0,-0.0,-0.0,-0.0,10.000000000000044,10.000000000000044,-0.0,10.000000000000044
-0.0,-0.0,-0.0,-0.0,-0.0,-0.0,-0.0,-0.0,10.000000000000044,10.000000000000044,-0.0,10.000000000000044
-0.0,-0.0,-0.0,-0.0,-0.0,-0.0,-0.0,-0.0,10.000000000000044,10.000000000000044,-0.0,10.000000000000044
-0.0,-0.0,-0.0,-0.0,-0.0,-0.0,-0.0,10.000000000000044,10.000000000000044,10.000000000000044,-0.0,10.000000000000044
-0.0,-0.0,-0.0,-0.0,-0.0,-0.0,-0.0,10.000000000000044,10.000000000000044,10.000000000000044,-0.0,10.000000000000044
10.000000000000044,-0.0,-0.0,-10.000000000000044,-0.0,-0.0,-0.0,10.000000000000044,10.000000000000044,10.000000000000044,-0.0,20.00000000000009
10.000000000000044,10.000000000000044,-0.0,-10.000000000000044,-0.0,-0.0,-0.0,10.000000000000044,20.00000000000009,10.000000000000044,-0.0,10.000000000000044
20.00000000000009,10.000000000000044,-0.0,-20.00000000000009,-0.0,-0.0,-0.0,10.000000000000044,10.000000000000044,10.000000000000044,-0.0,10.000000000000044
20.00000000000009,20.00000000000009,-0.0,-20.00000000000009,10.000000000000044,10.000000000000044,-0.0,10.000000000000044,10.000000000000044,10.000000000000044,-0.0,10.000000000000044
30.000000000000135,20.00000000000009,-0.0,-30.000000000000135,10.000000000000044,10.000000000000044,-0.0,10.000000000000044,10.000000000000044,10.000000000000044,-0.0,20.00000000000009
30.000000000000135,30.000000000000135,-0.0,-30.000000000000135,10.000000000000044,20.00000000000009,-0.0,10.000000000000044,10.000000000000044,10.000000000000044,-0.0,10.000000000000044
30.000000000000135,30.000000000000135,-0.0,-40.00000000000018,10.000000000000044,20.00000000000009,-0.0,10.000000000000044,10.000000000000044,10.000000000000044,-0.0,10.000000000000044
40.00000000000018,40.00000000000018,-0.0,-40.00000000000018,10.000000000000044,20.00000000000009,-0.0,-0.0,10.000000000000044,10.000000000000044,-0.0,10.000000000000044
40.00000000000018,50.00000000000022,-0.0,-50.00000000000022,10.000000000000044,30.000000000000135,-0.0,-0.0,10.000000000000044,-0.0,-0.0,10.000000000000044
40.00000000000018,50.00000000000022,10.000000000000044,-50.00000000000022,10.000000000000044,30.000000000000135,-0.0,-0.0,-0.0,-0.0,-0.0,10.000000000000044
50.00000000000022,60.00000000000027,10.000000000000044,-60.00000000000027,10.000000000000044,40.00000000000018,-0.0,-0.0,-0.0,-0.0,-0.0,-0.0
60.00000000000027,70.00000000000031,20.00000000000009,-70.00000000000031,10.000000000000044,50.00000000000022,-0.0,-0.0,-0.0,-0.0,-0.0,-0.0
60.00000000000027,80.00000000000036,20.00000000000009,-80.00000000000036,10.000000000000044,60.00000000000027,-0.0,-0.0,-0.0,-0.0,-0.0,-0.0
70.00000000000031,90.0000000000004,20.00000000000009,-90.0000000000004,20.00000000000009,60.00000000000027,-0.0,-0.0,-0.0,-0.0,-0.0,-0.0
80.00000000000036,100.00000000000044,30.000000000000135,-100.00000000000044,20.00000000000009,70.00000000000031,-0.0,-0.0,-0.0,-0.0,-10.000000000000044,-0.0
90.0000000000004,110.00000000000048,30.000000000000135,-110.00000000000048,20.00000000000009,80.00000000000036,-0.0,-0.0,-0.0,-0.0,-10.000000000000044,-0.0
100.00000000000044,120.00000000000054,30.000000000000135,-120.00000000000054,20.00000000000009,80.00000000000036,-0.0,-10.000000000000044,-0.0,-0.0,-10.000000000000044,-0.0
100.00000000000044,130.00000000000057,30.000000000000135,-130.00000000000057,30.000000000000135,90.0000000000004,-0.0,-10.000000000000044,-0.0,-0.0,-10.000000000000044,-0.0
110.00000000000048,140.00000000000063,30.000000000000135,-140.00000000000063,30.000000000000135,90.0000000000004,-0.0,-10.000000000000044,-0.0,-0.0,-10.000000000000044,-0.0
120.00000000000054,150.00000000000065,40.00000000000018,-150.00000000000065,40.00000000000018,100.00000000000044,-0.0,-10.000000000000044,-0.0,-10.000000000000044,-10.000000000000044,-0.0
130.00000000000057,160.0000000000007,40.00000000000018,-160.0000000000007,40.00000000000018,100.00000000000044,-0.0,-0.0,-0.0,-10.000000000000044,-20.00000000000009,-0.0
140.00000000000063,170.00000000000077,40.00000000000018,-170.00000000000077,50.00000000000022,110.00000000000048,-0.0,-0.0,-0.0,-10.000000000000044,-20.00000000000009,-0.0
150.00000000000065,180.0000000000008,40.00000000000018,-170.00000000000077,50.00000000000022,110.00000000000048,-0.0,-0.0,-10.000000000000044,-10.000000000000044,-20.00000000000009,-10.000000000000044
150.00000000000065,190.00000000000085,40.00000000000018,-180.0000000000008,50.00000000000022,120.00000000000054,-0.0,-0.0,-10.000000000000044,-10.000000000000044,-20.00000000000009,-10.000000000000044
160.0000000000007,200.00000000000088,50.00000000000022,-190.00000000000085,50.00000000000022,130.00000000000057,-0.0,-0.0,-10.000000000000044,-10.000000000000044,-20.00000000000009,-10.000000000000044
160.0000000000007,210.00000000000094,50.00000000000022,-190.00000000000085,50.00000000000022,130.00000000000057,-0.0,-10.000000000000044,-10.000000000000044,-10.000000000000044,-20.00000000000009,-10.000000000000044
170.00000000000077,220.00000000000097,50.00000000000022,-200.00000000000088,50.00000000000022,140.00000000000063,-0.0,-10.000000000000044,-10.000000000000044,-10.000000000000044,-20.00000000000009,-10.000000000000044
170.00000000000077,220.00000000000097,60.00000000000027,-200.00000000000088,50.00000000000022,140.00000000000063,-0.0,-10.000000000000044,-10.000000000000044,-20.00000000000009,-30.000000000000135,-10.000000000000044
170.00000000000077,230.00000000000102,60.00000000000027,-210.00000000000094,50.00000000000022,150.00000000000065,-0.0,-20.00000000000009,-20.00000000000009,-20.00000000000009,-30.000000000000135,-20.00000000000009
170.00000000000077,240.00000000000108,60.00000000000027,-210.00000000000094,50.00000000000022,150.00000000000065,-0.0,-20.00000000000009,-20.00000000000009,-20.00000000000009,-30.000000000000135,-20.00000000000009
170.00000000000077,240.00000000000108,70.00000000000031,-210.00000000000094,50.00000000000022,160.0000000000007,-0.0,-20.00000000000009,-20.00000000000009,-20.00000000000009,-30.000000000000135,-20.00000000000009
170.00000000000077,240.00000000000108,70.00000000000031,-210.00000000000094,40.00000000000018,150.00000000000065,-0.0,-20.00000000000009,-20.00000000000009,-20.00000000000009,-30.000000000000135,-20.00000000000009
170.00000000000077,240.00000000000108,70.00000000000031,-200.00000000000088,40.00000000000018,150.00000000000065,-0.0,-20.00000000000009,-20.00000000000009,-20.00000000000009,-30.000000000000135,-20.00000000000009
160.0000000000007,240.00000000000108,60.00000000000027,-200.00000000000088,40.00000000000018,140.00000000000063,-0.0,-20.00000000000009,-20.00000000000009,-20.00000000000009,-30.000000000000135,-20.00000000000009
150.00000000000065,230.00000000000102,60.00000000000027,-190.00000000000085,40.00000000000018,140.00000000000063,-0.0,-30.000000000000135,-20.00000000000009,-30.000000000000135,-30.000000000000135,-20.00000000000009
140.00000000000063,220.00000000000097,60.00000000000027,-180.0000000000008,40.00000000000018,130.00000000000057,-0.0,-30.000000000000135,-20.00000000000009,-30.000000000000135,-30.000000000000135,-10.000000000000044
130.00000000000057,210.00000000000094,50.00000000000022,-170.00000000000077,30.000000000000135,120.00000000000054,-0.0,-30.000000000000135,-20.00000000000009,-30.000000000000135,-30.000000000000135,-10.000000000000044
120.00000000000054,190.00000000000085,50.00000000000022,-160.0000000000007,30.000000000000135,110.00000000000048,-0.0,-30.000000000000135,-20.00000000000009,-30.000000000000135,-30.000000000000135,-20.00000000000009
110.00000000000048,180.0000000000008,40.00000000000018,-140.00000000000063,30.000000000000135,100.00000000000044,-0.0,-30.000000000000135,-20.00000000000009,-30.000000000000135,-30.000000000000135,-10.000000000000044
100.00000000000044,160.0000000000007,40.00000000000018,-120.00000000000054,20.00000000000009,90.0000000000004,-0.0,-30.000000000000135,-20.00000000000009,-30.000000000000135,-30.000000000000135,-10.000000000000044
80.00000000000036,140.00000000000063,40.00000000000018,-110.00000000000048,20.00000000000009,80.00000000000036,-0.0,-30.000000000000135,-20.00000000000009,-30.000000000000135,-30.000000000000135,-10.000000000000044
70.00000000000031,120.00000000000054,30.000000000000135,-90.0000000000004,10.000000000000044,70.00000000000031,-0.0,-30.000000000000135,-20.00000000000009,-20.00000000000009,-30.000000000000135,-10.000000000000044
60.00000000000027,100.00000000000044,20.00000000000009,-80.00000000000036,10.000000000000044,60.00000000000027,-0.0,-30.000000000000135,-20.00000000000009,-20.00000000000009,-30.000000000000135,-10.000000000000044
50.00000000000022,90.0000000000004,20.00000000000009,-70.00000000000031,10.000000000000044,50.00000000000022,-0.0,-20.00000000000009,-10.000000000000044,-20.00000000000009,-30.000000000000135,-10.000000000000044
40.00000000000018,70.00000000000031,20.00000000000009,-50.00000000000022,-0.0,40.00000000000018,-0.0,-20.00000000000009,-10.000000000000044,-20.00000000000009,-30.000000000000135,-10.000000000000044
30.000000000000135,60.00000000000027,10.000000000000044,-40.00000000000018,-0.0,30.000000000000135,-0.0,-20.00000000000009,-10.000000000000044,-10.000000000000044,-30.000000000000135,-10.000000000000044
20.00000000000009,50.00000000000022,10.000000000000044,-30.000000000000135,-0.0,20.00000000000009,-0.0,-10.000000000000044,-0.0,-0.0,-20.00000000000009,-0.0
20.00000000000009,40.00000000000018,10.000000000000044,-20.00000000000009,-0.0,20.00000000000009,-0.0,-0.0,-0.0,-0.0,-10.000000000000044,-0.0
10.000000000000044,30.000000000000135,-0.0,-20.00000000000009,-0.0,10.000000000000044,10.000000000000044,-0.0,10.000000000000044,-0.0,-10.000000000000044,-0.0
10.000000000000044,20.00000000000009,-0.0,-10.000000000000044,-0.0,10.000000000000044,10.000000000000044,-0.0,20.00000000000009,10.000000000000044,-0.0,-0.0
-0.0,20.00000000000009,-0.0,-10.000000000000044,-0.0,10.000000000000044,-0.0,10.000000000000044,30.000000000000135,20.00000000000009,-0.0,-0.0
-0.0,10.000000000000044,-0.0,-0.0,-0.0,-0.0,-0.0,20.00000000000009,30.000000000000135,30.000000000000135,10.000000000000044,10.000000000000044
-0.0,10.000000000000044,-0.0,-0.0,-0.0,-0.0,-0.0,20.00000000000009,30.000000000000135,30.000000000000135,10.000000000000044,20.00000000000009
-0.0,-0.0,-0.0,-0.0,-0.0,-0.0,-10.000000000000044,10.000000000000044,30.000000000000135,30.000000000000135,20.00000000000009,20.00000000000009
-0.0,-0.0,-0.0,-0.0,-0.0,-0.0,-20.00000000000009,10.000000000000044,20.00000000000009,30.000000000000135,20.00000000000009,30.000000000000135
-0.0,-0.0,-0.0,-0.0,-0.0,-0.0,-30.000000000000135,-0.0,20.00000000000009,20.00000000000009,20.00000000000009,30.000000000000135
-0.0,-0.0,-0.0,-0.0,-0.0,-0.0,-40.00000000000018,-0.0,10.000000000000044,10.000000000000044,20.00000000000009,40.00000000000018
-0.0,-0.0,-0.0,-0.0,-0.0,-0.0,-50.00000000000022,-10.000000000000044,-0.0,10.000000000000044,20.00000000000009,40.00000000000018
-0.0,-0.0,-0.0,-0.0,-0.0,-0.0,-60.00000000000027,-20.00000000000009,-0.0,-0.0,20.00000000000009,40.00000000000018
-0.0,-0.0,-0.0,-0.0,-0.0,-0.0,-70.00000000000031,-30.000000000000135,-10.000000000000044,-0.0,10.000000000000044,40.00000000000018
-0.0,-0.0,-0.0,-0.0,-0.0,-0.0,-70.00000000000031,-40.00000000000018,-20.00000000000009,-0.0,10.000000000000044,30.000000000000135
-0.0,-0.0,-0.0,-0.0,-0.0,-0.0,-70.00000000000031,-50.00000000000022,-30.000000000000135,-10.000000000000044,-0.0,30.000000000000135
-0.0,-0.0,-0.0,-0.0,-0.0,-0.0,-70.00000000000031,-60.00000000000027,-40.00000000000018,-20.00000000000009,-0.0,20.00000000000009
-0.0,-0.0,-0.0,-0.0,-0.0,-0.0,-70.00000000000031,-60.00000000000027,-40.00000000000018,-30.000000000000135,-0.0,10.000000000000044
-0.0,-0.0,-0.0,-0.0,-0.0,-0.0,-60.00000000000027,-70.00000000000031,-50.00000000000022,-40.00000000000018,-10.000000000000044,-0.0
-0.0,-0.0,-0.0,-0.0,-0.0,-0.0,-60.00000000000027,-70.00000000000031,-60.00000000000027,-50.00000000000022,-20.00000000000009,-0.0
-0.0,-0.0,-0.0,-0.0,-0.0,-0.0,-50.00000000000022,-70.00000000000031,-60.00000000000027,-50.00000000000022,-30.000000000000135,-10.000000000000044
-0.0,-0.0,-0.0,-0.0,-0.0,-0.0,-40.00000000000018,-70.00000000000031,-60.00000000000027,-50.00000000000022,-40.00000000000018,-20.00000000000009
-0.0,-0.0,-0.0,-0.0,-0.0,-0.0,-30.000000000000135,-70.00000000000031,-60.00000000000027,-60.00000000000027,-50.00000000000022,-30.000000000000135
-0.0,-0.0,-0.0,-0.0,-0.0,-0.0,-30.000000000000135,-70.00000000000031,-60.00000000000027,-60.00000000000027,-50.00000000000022,-30.000000000000135
-0.0,-0.0,-0.0,-0.0,-0.0,-0.0,-20.00000000000009,-70.00000000000031,-60.00000000000027,-60.00000000000027,-50.00000000000022,-40.00000000000018
-0.0,-0.0,-0.0,-0.0,-0.0,-0.0,-10.000000000000044,-70.00000000000031,-60.00000000000027,-50.00000000000022,-50.00000000000022,-40.00000000000018
-0.0,-0.0,-0.0,-0.0,-0.0,-0.0,-10.000000000000044,-60.00000000000027,-60.00000000000027,-50.00000000000022,-50.00000000000022,-40.00000000000018
-0.0,-0.0,-0.0,-0.0,-0.0,-0.0,-10.000000000000044,-60.00000000000027,-60.00000000000027,-50.00000000000022,-50.00000000000022,-40.00000000000018
-0.0,-0.0,-0.0,-0.0,-0.0,-0.0,-10.000000000000044,-70.00000000000031,-60.00000000000027,-50.00000000000022,-50.00000000000022,-40.00000000000018
-0.0,-0.0,-0.0,-0.0,-0.0,-0.0,-10.000000000000044,-70.00000000000031,-60.00000000000027,-50.00000000000022,-50.00000000000022,-40.00000000000018
-0.0,-0.0,-0.0,-0.0,-0.0,-0.0,-10.000000000000044,-70.00000000000031,-40.00000000000018,-30.000000000000135,-50.00000000000022,-50.00000000000022
-0.0,-0.0,-0.0,-0.0,-0.0,-0.0,-0.0,-50.00000000000022,-10.000000000000044,-0.0,-40.00000000000018,-50.00000000000022
-0.0,-0.0,-0.0,-0.0,-0.0,-0.0,-0.0,-30.000000000000135,40.00000000000018,70.00000000000031,-10.000000000000044,-30.000000000000135
-0.0,-0.0,-0.0,-0.0,-0.0,-0.0,-10.000000000000044,-10.000000000000044,110.00000000000048,180.0000000000008,60.00000000000027,10.000000000000044
-0.0,-0.0,-0.0,-0.0,-0.0,-0.0,-30.000000000000135,-0.0,190.00000000000085,320.0000000000014,190.00000000000085,100.00000000000044
-0.0,-0.0,-0.0,-0.0,-0.0,-0.0,-70.00000000000031,-0.0,250.0000000000011,500.0000000000022,400.00000000000176,260.00000000000114
-0.0,-0.0,-0.0,-0.0,-0.0,-0.0,-130.00000000000057,-60.00000000000027,280.00000000000125,670.000000000003,670.000000000003,480.00000000000216
-0.0,-0.0,-0.0,-0.0,-0.0,-0.0,-220.00000000000097,-180.0000000000008,250.0000000000011,790.0000000000035,980.0000000000043,740.0000000000033
-0.0,-0.0,-0.0,-0.0,-0.0,-0.0,-340.00000000000153,-360.0000000000016,160.0000000000007,830.0000000000036,1270.0000000000057,1020.0000000000045
-0.0,-0.0,-0.0,-0.0,-0.0,-0.0,-460.00000000000205,-580.0000000000026,20.00000000000009,770.0000000000034,1500.0000000000066,1250.0000000000055
-0.0,-0.0,-0.0,-0.0,-0.0,-0.0,-570.0000000000025,-830.0000000000036,-170.00000000000077,610.0000000000027,1610.000000000007,1400.0000000000061
-0.0,-0.0,-0.0,-0.0,-0.0,-0.0,-650.0000000000028,-1060.0000000000048,-370.00000000000165,390.0000000000017,1560.0000000000068,1460.0000000000066
-0.0,-10.000000000000044,-0.0,-0.0,-0.0,-0.0,-710.0000000000032,-1250.0000000000055,-560.0000000000025,150.00000000000065,1410.0000000000064,1390.0000000000061
-0.0,-10.000000000000044,-0.0,10.000000000000044,-0.0,-10.000000000000044,-720.0000000000032,-1370.0000000000061,-710.0000000000032,-80.00000000000036,1170.0000000000052,1250.0000000000055
-0.0,-10.000000000000044,-10.000000000000044,10.000000000000044,-0.0,-10.000000000000044,-690.0000000000031,-1420.0000000000064,-790.0000000000035,-270.0000000000012,880.0000000000039,1050.0000000000048
-10.000000000000044,-20.00000000000009,-10.000000000000044,10.000000000000044,-0.0,-10.000000000000044,-630.0000000000028,-1370.0000000000061,-810.0000000000036,-400.00000000000176,590.0000000000026,830.0000000000036
-10.000000000000044,-20.00000000000009,-10.000000000000044,10.000000000000044,-0.0,-10.000000000000044,-540.0000000000024,-1260.0000000000057,-760.0000000000034,-470.0000000000021,330.0000000000015,610.0000000000027
-10.000000000000044,-20.00000000000009,-10.000000000000044,20.00000000000009,-0.0,-20.00000000000009,-450.000000000002,-1090.0000000000048,-670.000000000003,-470.0000000000021,120.00000000000054,410.0000000000018
-10.000000000000044,-20.00000000000009,-10.000000000000044,20.00000000000009,-0.0,-20.00000000000009,-350.00000000000153,-890.000000000004,-550.0000000000024,-430.00000000000193,-20.00000000000009,250.0000000000011
-10.000000000000044,-20.00000000000009,-10.000000000000044,20.00000000000009,-0.0,-10.000000000000044,-250.0000000000011,-690.0000000000031,-420.0000000000019,-360.0000000000016,-100.00000000000044,120.00000000000054
-10.000000000000044,-20.00000000000009,-10.000000000000044,20.00000000000009,-0.0,-20.00000000000009,-170.00000000000077,-510.0000000000023,-310.00000000000136,-270.0000000000012,-130.00000000000057,40.00000000000018
-10.000000000000044,-30.000000000000135,-10.000000000000044,20.00000000000009,-0.0,-20.00000000000009,-110.00000000000048,-350.00000000000153,-210.00000000000094,-190.00000000000085,-120.00000000000054,-0.0
-10.000000000000044,-30.000000000000135,-10.000000000000044,20.00000000000009,-0.0,-20.00000000000009,-60.00000000000027,-230.00000000000102,-120.00000000000054,-120.00000000000054,-90.0000000000004,-0.0
-10.000000000000044,-30.000000000000135,-10.000000000000044,20.00000000000009,-0.0,-20.00000000000009,-20.00000000000009,-130.00000000000057,-60.00000000000027,-70.00000000000031,-60.00000000000027,-0.0
-10.000000000000044,-30.000000000000135,-20.00000000000009,20.00000000000009,-0.0,-20.00000000000009,-0.0,-60.00000000000027,-20.00000000000009,-40.00000000000018,-40.00000000000018,-0.0
-10.000000000000044,-30.000000000000135,-20.00000000000009,20.00000000000009,-0.0,-20.00000000000009,10.000000000000044,-10.000000000000044,-0.0,-20.00000000000009,-20.00000000000009,-10.000000000000044
-10.000000000000044,-30.000000000000135,-20.00000000000009,20.00000000000009,-0.0,-30.000000000000135,30.000000000000135,10.000000000000044,-0.0,-10.000000000000044,-20.00000000000009,-20.00000000000009
-10.000000000000044,-40.00000000000018,-20.00000000000009,20.00000000000009,-0.0,-30.000000000000135,40.00000000000018,40.00000000000018,20.00000000000009,-0.0,-30.000000000000135,-30.000000000000135
-10.000000000000044,-40.00000000000018,-20.00000000000009,30.000000000000135,-0.0,-30.000000000000135,50.00000000000022,60.00000000000027,40.00000000000018,-0.0,-30.000000000000135,-40.00000000000018
-10.000000000000044,-40.00000000000018,-20.00000000000009,20.00000000000009,-0.0,-30.000000000000135,60.00000000000027,80.00000000000036,50.00000000000022,10.000000000000044,-20.00000000000009,-40.00000000000018
-10.000000000000044,-40.00000000000018,-20.00000000000009,20.00000000000009,-0.0,-30.000000000000135,60.00000000000027,100.00000000000044,70.00000000000031,30.000000000000135,-20.00000000000009,-40.00000000000018
-20.00000000000009,-40.00000000000018,-10.000000000000044,20.00000000000009,-0.0,-20.00000000000009,70.00000000000031,120.00000000000054,80.00000000000036,40.00000000000018,-10.000000000000044,-40.00000000000018
-20.00000000000009,-30.000000000000135,-10.000000000000044,20.00000000000009,-0.0,-20.00000000000009,70.00000000000031,130.00000000000057,90.0000000000004,50.00000000000022,-0.0,-40.00000000000018
-20.00000000000009,-30.000000000000135,-10.000000000000044,20.00000000000009,-0.0,-20.00000000000009,70.00000000000031,150.00000000000065,100.00000000000044,60.00000000000027,-0.0,-30.000000000000135
-20.00000000000009,-30.000000000000135,-10.000000000000044,20.00000000000009,-0.0,-20.00000000000009,70.00000000000031,160.0000000000007,110.00000000000048,70.00000000000031,-0.0,-30.000000000000135
-20.00000000000009,-30.000000000000135,-10.000000000000044,20.00000000000009,-0.0,-20.00000000000009,80.00000000000036,170.00000000000077,120.00000000000054,80.00000000000036,-0.0,-30.000000000000135
-20.00000000000009,-30.000000000000135,-10.000000000000044,20.00000000000009,-0.0,-20.00000000000009,80.00000000000036,180.0000000000008,130.00000000000057,90.0000000000004,-0.0,-30.000000000000135
-10.000000000000044,-30.000000000000135,-10.000000000000044,20.00000000000009,-0.0,-20.00000000000009,80.00000000000036,190.00000000000085,140.00000000000063,100.00000000000044,10.000000000000044,-30.000000000000135
-10.000000000000044,-30.000000000000135,-20.00000000000009,20.00000000000009,-0.0,-30.000000000000135,80.00000000000036,200.00000000000088,150.00000000000065,110.00000000000048,20.00000000000009,-30.000000000000135
-10.000000000000044,-40.00000000000018,-20.00000000000009,20.00000000000009,-0.0,-20.00000000000009,80.00000000000036,200.00000000000088,160.0000000000007,120.00000000000054,20.00000000000009,-20.00000000000009
-10.000000000000044,-30.000000000000135,-20.00000000000009,20.00000000000009,-0.0,-30.000000000000135,80.00000000000036,210.00000000000094,170.00000000000077,130.00000000000057,30.000000000000135,-20.00000000000009
-10.000000000000044,-30.000000000000135,-20.00000000000009,20.00000000000009,-0.0,-30.000000000000135,80.00000000000036,220.00000000000097,180.0000000000008,140.00000000000063,40.00000000000018,-20.00000000000009
-10.000000000000044,-30.000000000000135,-20.00000000000009,20.00000000000009,-0.0,-30.000000000000135,80.00000000000036,230.00000000000102,190.00000000000085,150.00000000000065,40.00000000000018,-10.000000000000044
-10.000000000000044,-40.00000000000018,-20.00000000000009,20.00000000000009,-0.0,-30.000000000000135,80.00000000000036,240.00000000000108,200.00000000000088,150.00000000000065,50.00000000000022,-10.000000000000044
-10.000000000000044,-40.00000000000018,-20.00000000000009,20.00000000000009,-0.0,-30.000000000000135,80.00000000000036,250.0000000000011,210.00000000000094,160.0000000000007,60.00000000000027,-10.000000000000044
-10.000000000000044,-40.00000000000018,-20.00000000000009,20.00000000000009,-0.0,-30.000000000000135,80.00000000000036,260.00000000000114,220.00000000000097,170.00000000000077,60.00000000000027,-0.0
-10.000000000000044,-40.00000000000018,-20.00000000000009,20.00000000000009,-0.0,-30.000000000000135,80.00000000000036,270.0000000000012,230.00000000000102,180.0000000000008,70.00000000000031,-0.0
-10.000000000000044,-40.00000000000018,-10.000000000000044,20.00000000000009,-0.0,-20.00000000000009,80.00000000000036,280.00000000000125,240.00000000000108,200.00000000000088,80.00000000000036,-0.0
-10.000000000000044,-30.000000000000135,-10.000000000000044,10.000000000000044,-0.0,-10.000000000000044,80.00000000000036,300.0000000000013,260.00000000000114,210.00000000000094,90.0000000000004,-0.0
-10.000000000000044,-20.00000000000009,-0.0,-0.0,-0.0,-0.0,80.00000000000036,310.00000000000136,280.00000000000125,220.00000000000097,100.00000000000044,-0.0
-0.0,-10.000000000000044,-0.0,-0.0,-0.0,-0.0,80.00000000000036,330.0000000000015,300.0000000000013,240.00000000000108,110.00000000000048,10.000000000000044
-0.0,-0.0,-0.0,-0.0,-0.0,-0.0,80.00000000000036,350.00000000000153,310.00000000000136,260.00000000000114,120.00000000000054,20.00000000000009
-0.0,-0.0,10.000000000000044,-10.000000000000044,-0.0,10.000000000000044,80.00000000000036,370.00000000000165,340.00000000000153,280.00000000000125,130.00000000000057,30.000000000000135
10.000000000000044,20.00000000000009,20.00000000000009,-20.00000000000009,-0.0,20.00000000000009,80.00000000000036,390.0000000000017,360.0000000000016,300.0000000000013,140.00000000000063,30.000000000000135
10.000000000000044,30.000000000000135,30.000000000000135,-30.000000000000135,-0.0,40.00000000000018,80.00000000000036,410.0000000000018,390.0000000000017,320.0000000000014,160.0000000000007,40.00000000000018
20.00000000000009,50.00000000000022,40.00000000000018,-40.00000000000018,-10.000000000000044,50.00000000000022,80.00000000000036,440.00000000000193,410.0000000000018,350.00000000000153,170.00000000000077,50.00000000000022
20.00000000000009,60.00000000000027,50.00000000000022,-50.00000000000022,-10.000000000000044,60.00000000000027,80.00000000000036,470.0000000000021,440.00000000000193,370.00000000000165,190.00000000000085,70.00000000000031
20.00000000000009,70.00000000000031,60.00000000000027,-60.00000000000027,-10.000000000000044,70.00000000000031,80.00000000000036,490.00000000000216,470.0000000000021,400.00000000000176,210.00000000000094,80.00000000000036
30.000000000000135,90.0000000000004,70.00000000000031,-60.00000000000027,-10.000000000000044,80.00000000000036,80.00000000000036,520.0000000000023,490.00000000000216,420.0000000000019,230.00000000000102,90.0000000000004
30.000000000000135,100.00000000000044,70.00000000000031,-70.00000000000031,-20.00000000000009,90.0000000000004,80.00000000000036,550.0000000000024,520.0000000000023,450.000000000002,250.0000000000011,100.00000000000044
30.000000000000135,100.00000000000044,70.00000000000031,-70.00000000000031,-10.000000000000044,90.0000000000004,80.00000000000036,570.0000000000025,550.0000000000024,480.00000000000216,270.0000000000012,110.00000000000048
30.000000000000135,110.00000000000048,70.00000000000031,-70.00000000000031,-10.000000000000044,90.0000000000004,80.00000000000036,600.0000000000026,570.0000000000025,500.0000000000022,290.0000000000013,130.00000000000057
30.000000000000135,110.00000000000048,70.00000000000031,-70.00000000000031,-10.000000000000044,90.0000000000004,80.00000000000036,620.0000000000027,600.0000000000026,520.0000000000023,310.00000000000136,140.00000000000063
30.000000000000135,100.00000000000044,60.00000000000027,-70.00000000000031,-10.000000000000044,80.00000000000036,70.00000000000031,640.0000000000028,620.0000000000027,540.0000000000024,330.0000000000015,160.0000000000007
30.000000000000135,100.00000000000044,50.00000000000022,-60.00000000000027,-0.0,70.00000000000031,70.00000000000031,660.000000000003,640.0000000000028,570.0000000000025,350.00000000000153,170.00000000000077
30.000000000000135,90.0000000000004,30.000000000000135,-50.00000000000022,-0.0,50.00000000000022,70.00000000000031,680.0000000000031,660.000000000003,590.0000000000026,370.00000000000165,190.00000000000085
30.000000000000135,70.00000000000031,20.00000000000009,-40.00000000000018,-0.0,30.000000000000135,60.00000000000027,700.0000000000031,670.000000000003,600.0000000000026,390.0000000000017,200.00000000000088
20.00000000000009,50.00000000000022,-0.0,-30.000000000000135,-0.0,20.00000000000009,60.00000000000027,710.0000000000032,690.0000000000031,620.0000000000027,410.0000000000018,210.00000000000094
10.000000000000044,30.000000000000135,-0.0,-20.00000000000009,-0.0,-0.0,60.00000000000027,720.0000000000032,690.0000000000031,630.0000000000028,420.0000000000019,230.00000000000102
-0.0,10.000000000000044,-0.0,-0.0,-0.0,-0.0,50.00000000000022,730.0000000000033,700.0000000000031,640.0000000000028,440.00000000000193,240.00000000000108
-0.0,-0.0,-10.000000000000044,-0.0,-0.0,-10.000000000000044,50.00000000000022,730.0000000000033,700.0000000000031,640.0000000000028,450.000000000002,250.0000000000011
-10.000000000000044,-20.00000000000009,-20.00000000000009,10.000000000000044,-0.0,-20.00000000000009,40.00000000000018,720.0000000000032,690.0000000000031,640.0000000000028,460.00000000000205,260.00000000000114
-10.000000000000044,-30.000000000000135,-30.000000000000135,20.00000000000009,-0.0,-40.00000000000018,40.00000000000018,710.0000000000032,680.0000000000031,630.0000000000028,460.00000000000205,270.0000000000012
-10.000000000000044,-40.00000000000018,-30.000000000000135,30.000000000000135,-0.0,-40.00000000000018,30.000000000000135,690.0000000000031,660.000000000003,620.0000000000027,460.00000000000205,280.00000000000125
-20.00000000000009,-50.00000000000022,-40.00000000000018,40.00000000000018,-0.0,-50.00000000000022,20.00000000000009,670.000000000003,640.0000000000028,600.0000000000026,460.00000000000205,280.00000000000125
-20.00000000000009,-60.00000000000027,-40.00000000000018,40.00000000000018,10.000000000000044,-50.00000000000022,10.000000000000044,640.0000000000028,610.0000000000027,580.0000000000026,450.000000000002,280.00000000000125
-20.00000000000009,-70.00000000000031,-50.00000000000022,40.00000000000018,10.000000000000044,-60.00000000000027,10.000000000000044,610.0000000000027,570.0000000000025,540.0000000000024,440.00000000000193,280.00000000000125
-20.00000000000009,-70.00000000000031,-60.00000000000027,50.00000000000022,10.000000000000044,-70.00000000000031,-0.0,570.0000000000025,530.0000000000024,510.0000000000023,420.0000000000019,270.0000000000012
-20.00000000000009,-80.00000000000036,-60.00000000000027,50.00000000000022,10.000000000000044,-70.00000000000031,-0.0,530.0000000000024,490.00000000000216,470.0000000000021,410.0000000000018,260.00000000000114
-10.000000000000044,-90.0000000000004,-80.00000000000036,50.00000000000022,20.00000000000009,-80.00000000000036,-0.0,480.00000000000216,450.000000000002,430.00000000000193,380.0000000000017,250.0000000000011
-10.000000000000044,-90.0000000000004,-90.0000000000004,50.00000000000022,30.000000000000135,-90.0000000000004,-0.0,440.00000000000193,400.00000000000176,390.0000000000017,360.0000000000016,230.00000000000102
-0.0,-100.00000000000044,-100.00000000000044,30.000000000000135,40.00000000000018,-90.0000000000004,-0.0,390.0000000000017,360.0000000000016,350.00000000000153,330.0000000000015,210.00000000000094
40.00000000000018,-90.0000000000004,-100.00000000000044,10.000000000000044,60.00000000000027,-80.00000000000036,-0.0,350.00000000000153,310.00000000000136,310.00000000000136,290.0000000000013,200.00000000000088
90.0000000000004,-60.00000000000027,-100.00000000000044,-40.00000000000018,90.0000000000004,-50.00000000000022,-0.0,300.0000000000013,270.0000000000012,270.0000000000012,260.00000000000114,180.0000000000008
150.00000000000065,-10.000000000000044,-80.00000000000036,-120.00000000000054,110.00000000000048,-10.000000000000044,-0.0,260.00000000000114,230.00000000000102,230.00000000000102,230.00000000000102,150.00000000000065
230.00000000000102,70.00000000000031,-30.000000000000135,-210.00000000000094,130.00000000000057,70.00000000000031,-0.0,220.00000000000097,190.00000000000085,190.00000000000085,200.00000000000088,130.00000000000057
310.00000000000136,190.00000000000085,30.000000000000135,-330.0000000000015,130.00000000000057,180.0000000000008,-0.0,180.0000000000008,160.0000000000007,160.0000000000007,170.00000000000077,110.00000000000048
370.00000000000165,340.00000000000153,110.00000000000048,-440.00000000000193,120.00000000000054,300.0000000000013,-0.0,150.00000000000065,140.00000000000063,130.00000000000057,140.00000000000063,90.0000000000004
420.0000000000019,490.00000000000216,210.00000000000094,-530.0000000000024,90.0000000000004,420.0000000000019,-0.0,120.00000000000054,110.00000000000048,110.00000000000048,110.00000000000048,70.00000000000031
430.00000000000193,630.0000000000028,300.0000000000013,-590.0000000000026,50.00000000000022,520.0000000000023,-0.0,100.00000000000044,90.0000000000004,80.00000000000036,90.0000000000004,60.00000000000027
410.0000000000018,740.0000000000033,390.0000000000017,-610.0000000000027,10.000000000000044,600.0000000000026,-0.0,80.00000000000036,80.00000000000036,70.00000000000031,70.00000000000031,40.00000000000018
360.0000000000016,800.0000000000035,450.000000000002,-590.0000000000026,-40.00000000000018,630.0000000000028,-0.0,60.00000000000027,60.00000000000027,60.00000000000027,50.00000000000022,30.000000000000135
280.00000000000125,810.0000000000036,480.00000000000216,-530.0000000000024,-90.0000000000004,620.0000000000027,-0.0,50.00000000000022,50.00000000000022,50.00000000000022,40.00000000000018,20.00000000000009
200.00000000000088,760.0000000000034,470.0000000000021,-440.00000000000193,-140.00000000000063,580.0000000000026,-0.0,40.00000000000018,40.00000000000018,40.00000000000018,30.000000000000135,20.00000000000009
120.00000000000054,680.0000000000031,450.000000000002,-350.00000000000153,-170.00000000000077,510.0000000000023,-0.0,30.000000000000135,30.000000000000135,30.000000000000135,20.00000000000009,10.000000000000044
50.00000000000022,580.0000000000026,400.00000000000176,-260.00000000000114,-170.00000000000077,430.00000000000193,-0.0,20.00000000000009,30.000000000000135,30.000000000000135,20.00000000000009,10.000000000000044
10.000000000000044,460.00000000000205,340.00000000000153,-180.0000000000008,-170.00000000000077,340.00000000000153,-0.0,10.000000000000044,20.00000000000009,20.00000000000009,10.000000000000044,10.000000000000044
-20.00000000000009,350.00000000000153,270.0000000000012,-110.00000000000048,-150.00000000000065,250.0000000000011,-0.0,10.000000000000044,20.00000000000009,20.00000000000009,10.000000000000044,-0.0
-40.00000000000018,240.00000000000108,200.00000000000088,-60.00000000000027,-120.00000000000054,180.0000000000008,-0.0,-0.0,10.000000000000044,10.000000000000044,10.000000000000044,-0.0
-50.00000000000022,160.0000000000007,150.00000000000065,-20.00000000000009,-100.00000000000044,120.00000000000054,-0.0,-0.0,10.000000000000044,10.000000000000044,-0.0,-0.0
-50.00000000000022,100.00000000000044,100.00000000000044,-0.0,-80.00000000000036,70.00000000000031,-0.0,-0.0,10.000000000000044,10.000000000000044,-0.0,-0.0
-40.00000000000018,50.00000000000022,70.00000000000031,-0.0,-60.00000000000027,40.00000000000018,-0.0,-0.0,10.000000000000044,10.000000000000044,-0.0,-0.0
-30.000000000000135,20.00000000000009,40.00000000000018,10.000000000000044,-40.00000000000018,20.00000000000009,-0.0,-0.0,10.000000000000044,10.000000000000044,-0.0,-0.0
-30.000000000000135,-0.0,20.00000000000009,10.000000000000044,-30.000000000000135,-0.0,-0.0,-0.0,10.000000000000044,10.000000000000044,-0.0,-0.0
-30.000000000000135,-10.000000000000044,-0.0,20.00000000000009,-20.00000000000009,-0.0,-0.0,-0.0,10.000000000000044,-0.0,-0.0,-0.0
-30.000000000000135,-20.00000000000009,-0.0,30.000000000000135,-10.000000000000044,-10.000000000000044,-0.0,-0.0,10.000000000000044,-0.0,-0.0,-0.0
-30.000000000000135,-30.000000000000135,-10.000000000000044,30.000000000000135,-10.000000000000044,-20.00000000000009,-0.0,-0.0,10.000000000000044,10.000000000000044,-0.0,-0.0
-30.000000000000135,-40.00000000000018,-10.000000000000044,40.00000000000018,-0.0,-30.000000000000135,-0.0,-0.0,10.000000000000044,10.000000000000044,-0.0,-0.0
-20.00000000000009,-50.00000000000022,-20.00000000000009,40.00000000000018,-0.0,-40.00000000000018,-0.0,-0.0,10.000000000000044,10.000000000000044,-0.0,-0.0
-20.00000000000009,-50.00000000000022,-30.000000000000135,30.000000000000135,-0.0,-40.00000000000018,-0.0,10.000000000000044,20.00000000000009,-0.0,-0.0,-0.0
-20.00000000000009,-50.00000000000022,-30.000000000000135,30.000000000000135,-0.0,-40.00000000000018,-0.0,10.000000000000044,20.00000000000009,10.000000000000044,-0.0,-0.0
-10.000000000000044,-50.00000000000022,-30.000000000000135,30.000000000000135,-0.0,-40.00000000000018,-0.0,10.000000000000044,20.00000000000009,10.000000000000044,-0.0,-0.0
-10.000000000000044,-50.00000000000022,-30.000000000000135,30.000000000000135,-0.0,-40.00000000000018,-0.0,10.000000000000044,20.00000000000009,10.000000000000044,-0.0,-0.0
-10.000000000000044,-50.00000000000022,-30.000000000000135,30.000000000000135,-0.0,-40.00000000000018,-0.0,10.000000000000044,20.00000000000009,10.000000000000044,-0.0,-0.0
-10.000000000000044,-50.00000000000022,-30.000000000000135,30.000000000000135,-0.0,-40.00000000000018,-0.0,20.00000000000009,30.000000000000135,10.000000000000044,-0.0,-0.0
-10.000000000000044,-50.00000000000022,-30.000000000000135,30.000000000000135,-0.0,-40.00000000000018,-0.0,20.00000000000009,30.000000000000135,10.000000000000044,-0.0,-0.0
-10.000000000000044,-50.00000000000022,-30.000000000000135,30.000000000000135,10.000000000000044,-40.00000000000018,-0.0,20.00000000000009,30.000000000000135,10.000000000000044,-0.0,-0.0
-10.000000000000044,-50.00000000000022,-40.00000000000018,30.000000000000135,10.000000000000044,-40.00000000000018,-0.0,20.00000000000009,30.000000000000135,20.00000000000009,-0.0,-0.0
-0.0,-50.00000000000022,-40.00000000000018,20.00000000000009,10.000000000000044,-40.00000000000018,-0.0,20.00000000000009,30.000000000000135,20.00000000000009,-0.0,-0.0
-0.0,-50.00000000000022,-40.00000000000018,20.00000000000009,10.000000000000044,-40.00000000000018,-0.0,20.00000000000009,30.000000000000135,20.00000000000009,-0.0,-0.0
-0.0,-40.00000000000018,-40.00000000000018,20.00000000000009,10.000000000000044,-40.00000000000018,-0.0,20.00000000000009,30.000000000000135,20.00000000000009,-0.0,-0.0
-0.0,-40.00000000000018,-40.00000000000018,10.000000000000044,10.000000000000044,-40.00000000000018,-0.0,20.00000000000009,30.000000000000135,20.00000000000009,-0.0,-0.0
-0.0,-40.00000000000018,-30.000000000000135,10.000000000000044,10.000000000000044,-30.000000000000135,-0.0,20.00000000000009,30.000000000000135,20.00000000000009,-0.0,-0.0
-0.0,-30.000000000000135,-40.00000000000018,-0.0,20.00000000000009,-30.000000000000135,-0.0,20.00000000000009,20.00000000000009,20.00000000000009,-0.0,-0.0
10.000000000000044,-30.000000000000135,-40.00000000000018,-0.0,20.00000000000009,-30.000000000000135,-0.0,10.000000000000044,20.00000000000009,20.00000000000009,-0.0,-0.0
10.000000000000044,-20.00000000000009,-40.00000000000018,-0.0,20.00000000000009,-30.000000000000135,-0.0,10.000000000000044,20.00000000000009,10.000000000000044,-0.0,-0.0
20.00000000000009,-20.00000000000009,-40.00000000000018,-0.0,30.000000000000135,-20.00000000000009,-0.0,10.000000000000044,20.00000000000009,10.000000000000044,-0.0,-0.0
20.00000000000009,-10.000000000000044,-30.000000000000135,-0.0,20.00000000000009,-20.00000000000009,-0.0,10.000000000000044,20.00000000000009,10.000000000000044,-0.0,-0.0
20.00000000000009,-10.000000000000044,-30.000000000000135,-0.0,20.00000000000009,-10.000000000000044,-0.0,10.000000000000044,10.000000000000044,10.000000000000044,-0.0,-0.0
20.00000000000009,-0.0,-30.000000000000135,-10.000000000000044,20.00000000000009,-10.000000000000044,-0.0,-0.0,10.000000000000044,10.000000000000044,-0.0,-0.0
30.000000000000135,-0.0,-20.00000000000009,-10.000000000000044,20.00000000000009,-10.000000000000044,-0.0,-0.0,10.000000000000044,10.000000000000044,-0.0,-0.0
30.000000000000135,-0.0,-20.00000000000009,-20.00000000000009,30.000000000000135,-0.0,-0.0,-0.0,10.000000000000044,10.000000000000044,-0.0,-0.0
40.00000000000018,-0.0,-20.00000000000009,-30.000000000000135,30.000000000000135,-0.0,-0.0,-0.0,10.000000000000044,-0.0,-0.0,-0.0
40.00000000000018,10.000000000000044,-20.00000000000009,-40.00000000000018,30.000000000000135,-0.0,-0.0,-0.0,10.000000000000044,-0.0,-0.0,-0.0
50.00000000000022,20.00000000000009,-10.000000000000044,-40.00000000000018,30.000000000000135,-0.0,-0.0,-0.0,-0.0,-0.0,-0.0,-0.0
60.00000000000027,30.000000000000135,-10.000000000000044,-50.00000000000022,30.000000000000135,10.000000000000044,-0.0,-0.0,-0.0,-0.0,-0.0,-0.0
60.00000000000027,40.00000000000018,-10.000000000000044,-60.00000000000027,40.00000000000018,10.000000000000044,-0.0,-0.0,-0.0,-0.0,-0.0,-0.0
70.00000000000031,50.00000000000022,-10.000000000000044,-70.00000000000031,40.00000000000018,20.00000000000009,-0.0,-0.0,-0.0,-0.0,-0.0,-0.0
80.00000000000036,60.00000000000027,-10.000000000000044,-80.00000000000036,40.00000000000018,20.00000000000009,-0.0,-0.0,-0.0,-0.0,-0.0,-10.000000000000044
90.0000000000004,70.00000000000031,-0.0,-90.0000000000004,50.00000000000022,30.000000000000135,-0.0,-0.0,-0.0,-0.0,-0.0,-10.000000000000044
100.00000000000044,80.00000000000036,-0.0,-100.00000000000044,50.00000000000022,40.00000000000018,-0.0,-0.0,-0.0,-0.0,-10.000000000000044,-10.000000000000044
100.00000000000044,90.0000000000004,-0.0,-110.00000000000048,50.00000000000022,40.00000000000018,-0.0,-0.0,-0.0,-0.0,-10.000000000000044,-10.000000000000044
110.00000000000048,100.00000000000044,-0.0,-120.00000000000054,60.00000000000027,50.00000000000022,-0.0,-0.0,-0.0,-10.000000000000044,-10.000000000000044,-10.000000000000044
120.00000000000054,110.00000000000048,-0.0,-130.00000000000057,60.00000000000027,60.00000000000027,-0.0,-0.0,-0.0,-10.000000000000044,-10.000000000000044,-10.000000000000044
130.00000000000057,120.00000000000054,-0.0,-130.00000000000057,50.00000000000022,70.00000000000031,-0.0,-0.0,-0.0,-10.000000000000044,-10.000000000000044,-10.000000000000044
130.00000000000057,130.00000000000057,10.000000000000044,-140.00000000000063,50.00000000000022,80.00000000000036,-0.0,-0.0,-0.0,-10.000000000000044,-10.000000000000044,-10.000000000000044
140.00000000000063,150.00000000000065,20.00000000000009,-150.00000000000065,50.00000000000022,90.0000000000004,-0.0,-10.000000000000044,-10.000000000000044,-10.000000000000044,-20.00000000000009,-10.000000000000044
140.00000000000063,160.0000000000007,20.00000000000009,-160.0000000000007,50.00000000000022,100.00000000000044,-0.0,-10.000000000000044,-10.000000000000044,-10.000000000000044,-20.00000000000009,-10.000000000000044
140.00000000000063,170.00000000000077,30.000000000000135,-160.0000000000007,50.00000000000022,100.00000000000044,-0.0,-10.000000000000044,-10.000000000000044,-10.000000000000044,-20.00000000000009,-10.000000000000044
150.00000000000065,180.0000000000008,30.000000000000135,-170.00000000000077,50.00000000000022,110.00000000000048,-0.0,-10.000000000000044,-10.000000000000044,-20.00000000000009,-20.00000000000009,-20.00000000000009
150.00000000000065,190.00000000000085,40.00000000000018,-170.00000000000077,50.00000000000022,110.00000000000048,-0.0,-10.000000000000044,-10.000000000000044,-20.00000000000009,-20.00000000000009,-20.00000000000009
150.00000000000065,190.00000000000085,40.00000000000018,-180.0000000000008,50.00000000000022,120.00000000000054,-0.0,-10.000000000000044,-10.000000000000044,-20.00000000000009,-20.00000000000009,-20.00000000000009
160.0000000000007,200.00000000000088,40.00000000000018,-180.0000000000008,50.00000000000022,120.00000000000054,-0.0,-10.000000000000044,-10.000000000000044,-20.00000000000009,-20.00000000000009,-20.00000000000009
160.0000000000007,210.00000000000094,50.00000000000022,-180.0000000000008,50.00000000000022,130.00000000000057,-0.0,-20.00000000000009,-10.000000000000044,-20.00000000000009,-20.00000000000009,-20.00000000000009
160.0000000000007,210.00000000000094,50.00000000000022,-190.00000000000085,50.00000000000022,130.00000000000057,-0.0,-20.00000000000009,-10.000000000000044,-20.00000000000009,-20.00000000000009,-20.00000000000009
160.0000000000007,210.00000000000094,50.00000000000022,-180.0000000000008,50.00000000000022,130.00000000000057,-0.0,-20.00000000000009,-10.000000000000044,-20.00000000000009,-20.00000000000009,-20.00000000000009
150.00000000000065,210.00000000000094,40.00000000000018,-180.0000000000008,50.00000000000022,120.00000000000054,-0.0,-20.00000000000009,-10.000000000000044,-20.00000000000009,-20.00000000000009,-20.00000000000009
140.00000000000063,200.00000000000088,40.00000000000018,-170.00000000000077,40.00000000000018,120.00000000000054,-0.0,-20.00000000000009,-10.000000000000044,-20.00000000000009,-20.00000000000009,-20.00000000000009
130.00000000000057,190.00000000000085,40.00000000000018,-160.0000000000007,40.00000000000018,110.00000000000048,-0.0,-20.00000000000009,-10.000000000000044,-20.00000000000009,-20.00000000000009,-20.00000000000009
120.00000000000054,180.0000000000008,40.00000000000018,-150.00000000000065,40.00000000000018,100.00000000000044,-0.0,-20.00000000000009,-10.000000000000044,-30.000000000000135,-20.00000000000009,-20.00000000000009
110.00000000000048,170.00000000000077,40.00000000000018,-140.00000000000063,30.000000000000135,90.0000000000004,-0.0,-20.00000000000009,-10.000000000000044,-30.000000000000135,-20.00000000000009,-20.00000000000009
100.00000000000044,150.00000000000065,30.000000000000135,-120.00000000000054,30.000000000000135,90.0000000000004,-0.0,-20.00000000000009,-10.000000000000044,-20.00000000000009,-20.00000000000009,-20.00000000000009
90.0000000000004,140.00000000000063,30.000000000000135,-110.00000000000048,20.00000000000009,70.00000000000031,-0.0,-20.00000000000009,-10.000000000000044,-20.00000000000009,-20.00000000000009,-20.00000000000009
80.00000000000036,120.00000000000054,20.00000000000009,-100.00000000000044,20.00000000000009,60.00000000000027,-0.0,-20.00000000000009,-10.000000000000044,-30.000000000000135,-20.00000000000009,-20.00000000000009
60.00000000000027,100.00000000000044,20.00000000000009,-80.00000000000036,10.000000000000044,60.00000000000027,-0.0,-20.00000000000009,-10.000000000000044,-30.000000000000135,-20.00000000000009,-20.00000000000009
50.00000000000022,90.0000000000004,10.000000000000044,-70.00000000000031,10.000000000000044,40.00000000000018,-0.0,-20.00000000000009,-20.00000000000009,-30.000000000000135,-20.00000000000009,-20.00000000000009
40.00000000000018,70.00000000000031,10.000000000000044,-60.00000000000027,10.000000000000044,30.000000000000135,-0.0,-20.00000000000009,-20.00000000000009,-30.000000000000135,-20.00000000000009,-20.00000000000009
40.00000000000018,60.00000000000027,-0.0,-50.00000000000022,10.000000000000044,20.00000000000009,-0.0,-20.00000000000009,-20.00000000000009,-30.000000000000135,-20.00000000000009,-20.00000000000009
30.000000000000135,40.00000000000018,-0.0,-30.000000000000135,10.000000000000044,10.000000000000044,-0.0,-20.00000000000009,-10.000000000000044,-20.00000000000009,-20.00000000000009,-20.00000000000009
20.00000000000009,30.000000000000135,-0.0,-20.00000000000009,10.000000000000044,-0.0,-0.0,-20.00000000000009,-10.000000000000044,-20.00000000000009,-20.00000000000009,-10.000000000000044
10.000000000000044,20.00000000000009,-0.0,-10.000000000000044,10.000000000000044,-0.0,-0.0,-10.000000000000044,-10.000000000000044,-10.000000000000044,-10.000000000000044,-10.000000000000044
10.000000000000044,-0.0,-10.000000000000044,-10.000000000000044,10.000000000000044,-0.0,-0.0,-10.000000000000044,-0.0,-10.000000000000044,-10.000000000000044,-10.000000000000044
-0.0,-0.0,-0.0,-0.0,-0.0,-0.0,-0.0,-0.0,-0.0,-0.0,-0.0,-0.0
-0.0,-0.0,-10.000000000000044,-0.0,-0.0,-0.0,-0.0,-0.0,-0.0,-0.0,-0.0,-0.0
-0.0,-0.0,-10.000000000000044,-0.0,-0.0,-0.0,-0.0,-0.0,10.000000000000044,10.000000000000044,-0.0,-0.0
-0.0,-0.0,-10.000000000000044,-0.0,-0.0,-10.000000000000044,-0.0,10.000000000000044,20.00000000000009,20.00000000000009,10.000000000000044,-0.0
-0.0,-10.000000000000044,-10.000000000000044,-0.0,-0.0,-10.000000000000044,-0.0,20.00000000000009,30.000000000000135,20.00000000000009,20.00000000000009,10.000000000000044
-0.0,-10.000000000000044,-10.000000000000044,-0.0,-0.0,-10.000000000000044,-0.0,20.00000000000009,30.000000000000135,30.000000000000135,20.00000000000009,20.00000000000009
-0.0,-10.000000000000044,-10.000000000000044,-0.0,-0.0,-10.000000000000044,-10.000000000000044,20.00000000000009,30.000000000000135,30.000000000000135,30.000000000000135,20.00000000000009
-0.0,-10.000000000000044,-10.000000000000044,-0.0,-0.0,-10.000000000000044,-20.00000000000009,20.00000000000009,20.00000000000009,20.00000000000009,30.000000000000135,30.000000000000135
-0.0,-10.000000000000044,-10.000000000000044,-0.0,-0.0,-10.000000000000044,-40.00000000000018,-0.0,20.00000000000009,20.00000000000009,30.000000000000135,30.000000000000135
-0.0,-10.000000000000044,-10.000000000000044,-0.0,-0.0,-10.000000000000044,-50.00000000000022,-0.0,10.000000000000044,10.000000000000044,30.000000000000135,30.000000000000135
-0.0,-10.000000000000044,-10.000000000000044,-0.0,-0.0,-10.000000000000044,-60.00000000000027,-0.0,-0.0,10.000000000000044,30.000000000000135,40.00000000000018
-0.0,-10.000000000000044,-10.000000000000044,-0.0,-0.0,-10.000000000000044,-60.00000000000027,-10.000000000000044,-0.0,-0.0,30.000000000000135,40.00000000000018
-0.0,-10.000000000000044,-10.000000000000044,-0.0,-0.0,-10.000000000000044,-70.00000000000031,-20.00000000000009,-0.0,-0.0,30.000000000000135,40.00000000000018
-0.0,-10.000000000000044,-10.000000000000044,-0.0,-0.0,-10.000000000000044,-70.00000000000031,-30.000000000000135,-20.00000000000009,-0.0,20.00000000000009,40.00000000000018
-0.0,-10.000000000000044,-10.000000000000044,-0.0,-0.0,-10.000000000000044,-70.00000000000031,-40.00000000000018,-30.000000000000135,-10.000000000000044,20.00000000000009,30.000000000000135
-0.0,-10.000000000000044,-0.0,-0.0,-0.0,-0.0,-70.00000000000031,-50.00000000000022,-40.00000000000018,-20.00000000000009,10.000000000000044,30.000000000000135
-0.0,-10.000000000000044,-0.0,-0.0,-0.0,-0.0,-70.00000000000031,-50.00000000000022,-40.00000000000018,-30.000000000000135,-0.0,20.00000000000009
-0.0,-10.000000000000044,-0.0,-0.0,-0.0,-0.0,-70.00000000000031,-60.00000000000027,-50.00000000000022,-40.00000000000018,-0.0,10.000000000000044
-0.0,-0.0,-0.0,-0.0,-0.0,-0.0,-60.00000000000027,-60.00000000000027,-60.00000000000027,-50.00000000000022,-0.0,-0.0
-0.0,-0.0,-0.0,-0.0,-0.0,-0.0,-50.00000000000022,-60.00000000000027,-60.00000000000027,-50.00000000000022,-10.000000000000044,-0.0
-0.0,-0.0,-0.0,-0.0,-0.0,-0.0,-40.00000000000018,-60.00000000000027,-70.00000000000031,-60.00000000000027,-20.00000000000009,-10.000000000000044
-0.0,-0.0,-0.0,-0.0,-0.0,-0.0,-40.00000000000018,-60.00000000000027,-70.00000000000031,-60.00000000000027,-30.000000000000135,-10.000000000000044
-0.0,-0.0,-0.0,-0.0,-0.0,-0.0,-30.000000000000135,-60.00000000000027,-70.00000000000031,-60.00000000000027,-30.000000000000135,-20.00000000000009
-0.0,-0.0,-0.0,-0.0,-0.0,-0.0,-20.00000000000009,-60.00000000000027,-70.00000000000031,-60.00000000000027,-40.00000000000018,-30.000000000000135
-0.0,-0.0,-0.0,-0.0,-0.0,-0.0,-20.00000000000009,-60.00000000000027,-70.00000000000031,-60.00000000000027,-40.00000000000018,-30.000000000000135
-0.0,-0.0,-0.0,-0.0,-0.0,-0.0,-10.000000000000044,-60.00000000000027,-70.00000000000031,-60.00000000000027,-40.00000000000018,-30.000000000000135
-0.0,-0.0,-0.0,-0.0,-0.0,-0.0,-10.000000000000044,-60.00000000000027,-70.00000000000031,-60.00000000000027,-40.00000000000018,-30.000000000000135
-0.0,-0.0,-0.0,-0.0,-0.0,-0.0,-10.000000000000044,-70.00000000000031,-70.00000000000031,-60.00000000000027,-30.000000000000135,-30.000000000000135
-0.0,-0.0,-0.0,-0.0,-0.0,-0.0,-10.000000000000044,-70.00000000000031,-70.00000000000031,-50.00000000000022,-30.000000000000135,-30.000000000000135
-0.0,-0.0,-0.0,-0.0,-0.0,-0.0,-10.000000000000044,-70.00000000000031,-60.00000000000027,-40.00000000000018,-30.000000000000135,-40.00000000000018
-0.0,-0.0,-0.0,-0.0,-0.0,-0.0,-0.0,-60.00000000000027,-30.000000000000135,-10.000000000000044,-30.000000000000135,-40.00000000000018
-0.0,-0.0,-0.0,-0.0,-0.0,-0.0,-0.0,-30.000000000000135,20.00000000000009,50.00000000000022,-10.000000000000044,-30.000000000000135
-0.0,-0.0,-0.0,-0.0,-0.0,-0.0,-0.0,-10.000000000000044,90.0000000000004,140.00000000000063,40.00000000000018,-0.0
-0.0,-0.0,-0.0,-0.0,-0.0,-0.0,-20.00000000000009,10.000000000000044,170.00000000000077,280.00000000000125,140.00000000000063,70.00000000000031
-0.0,-0.0,-0.0,-0.0,-0.0,-0.0,-50.00000000000022,20.00000000000009,250.0000000000011,450.000000000002,320.0000000000014,210.00000000000094
-0.0,-0.0,-0.0,-0.0,-0.0,-0.0,-100.00000000000044,-10.000000000000044,290.0000000000013,620.0000000000027,570.0000000000025,410.0000000000018
-0.0,-0.0,-0.0,-0.0,-0.0,-0.0,-190.00000000000085,-110.00000000000048,280.00000000000125,750.0000000000033,870.0000000000039,660.000000000003
-0.0,-0.0,-0.0,-0.0,-0.0,-0.0,-290.0000000000013,-270.0000000000012,210.00000000000094,820.0000000000036,1170.0000000000052,930.0000000000041
-0.0,-0.0,-0.0,-0.0,-0.0,-0.0,-410.0000000000018,-490.00000000000216,80.00000000000036,780.0000000000034,1410.0000000000064,1170.0000000000052
-0.0,-0.0,-0.0,-0.0,-0.0,-0.0,-530.0000000000024,-730.0000000000033,-100.00000000000044,650.0000000000028,1540.0000000000068,1350.000000000006
-0.0,-0.0,-0.0,-0.0,-0.0,-0.0,-620.0000000000027,-980.0000000000043,-310.00000000000136,440.00000000000193,1550.0000000000068,1430.0000000000064
-0.0,-10.000000000000044,-0.0,-0.0,-0.0,-10.000000000000044,-680.0000000000031,-1190.0000000000052,-510.0000000000023,190.00000000000085,1420.0000000000064,1390.0000000000061
-0.0,-10.000000000000044,-0.0,-0.0,-0.0,-10.000000000000044,-710.0000000000032,-1340.000000000006,-660.000000000003,-50.00000000000022,1190.0000000000052,1270.0000000000057
-0.0,-10.000000000000044,-0.0,10.000000000000044,-0.0,-10.000000000000044,-690.0000000000031,-1410.0000000000064,-770.0000000000034,-240.00000000000108,920.0000000000041,1090.0000000000048
-0.0,-10.000000000000044,-10.000000000000044,10.000000000000044,-0.0,-10.000000000000044,-640.0000000000028,-1400.0000000000061,-810.0000000000036,-390.0000000000017,630.0000000000028,880.0000000000039
-0.0,-10.000000000000044,-10.000000000000044,10.000000000000044,-0.0,-10.000000000000044,-570.0000000000025,-1300.0000000000057,-770.0000000000034,-470.0000000000021,360.0000000000016,660.000000000003
-0.0,-20.00000000000009,-10.000000000000044,10.000000000000044,-0.0,-20.00000000000009,-480.00000000000216,-1150.000000000005,-690.0000000000031,-490.00000000000216,140.00000000000063,460.00000000000205
-0.0,-20.00000000000009,-20.00000000000009,10.000000000000044,-0.0,-20.00000000000009,-380.0000000000017,-970.0000000000043,-580.0000000000026,-450.000000000002,-10.000000000000044,280.00000000000125
-0.0,-20.00000000000009,-20.00000000000009,10.000000000000044,-0.0,-20.00000000000009,-280.00000000000125,-760.0000000000034,-450.000000000002,-390.0000000000017,-100.00000000000044,150.00000000000065
-0.0,-20.00000000000009,-20.00000000000009,10.000000000000044,-0.0,-20.00000000000009,-200.00000000000088,-570.0000000000025,-330.0000000000015,-300.0000000000013,-150.00000000000065,60.00000000000027
-0.0,-30.000000000000135,-20.00000000000009,10.000000000000044,-0.0,-20.00000000000009,-130.00000000000057,-400.00000000000176,-230.00000000000102,-220.00000000000097,-160.0000000000007,10.000000000000044
-0.0,-30.000000000000135,-20.00000000000009,20.00000000000009,-0.0,-30.000000000000135,-70.00000000000031,-270.0000000000012,-140.00000000000063,-140.00000000000063,-130.00000000000057,-0.0
-0.0,-30.000000000000135,-20.00000000000009,20.00000000000009,-0.0,-30.000000000000135,-30.000000000000135,-160.0000000000007,-70.00000000000031,-80.00000000000036,-90.0000000000004,-0.0
-0.0,-30.000000000000135,-20.00000000000009,20.00000000000009,-0.0,-30.000000000000135,-10.000000000000044,-80.00000000000036,-20.00000000000009,-50.00000000000022,-70.00000000000031,-0.0
-0.0,-30.000000000000135,-20.00000000000009,20.00000000000009,-0.0,-30.000000000000135,-0.0,-30.000000000000135,-0.0,-30.000000000000135,-50.00000000000022,-10.000000000000044
-0.0,-30.000000000000135,-30.000000000000135,20.00000000000009,-0.0,-30.000000000000135,10.000000000000044,-0.0,10.000000000000044,-20.00000000000009,-50.00000000000022,-20.00000000000009
-0.0,-40.00000000000018,-30.000000000000135,20.00000000000009,-0.0,-30.000000000000135,20.00000000000009,30.000000000000135,20.00000000000009,-10.000000000000044,-50.00000000000022,-30.000000000000135
-0.0,-40.00000000000018,-30.000000000000135,20.00000000000009,10.000000000000044,-30.000000000000135,30.000000000000135,50.00000000000022,40.00000000000018,-0.0,-50.00000000000022,-40.00000000000018
-0.0,-30.000000000000135,-30.000000000000135,10.000000000000044,10.000000000000044,-30.000000000000135,40.00000000000018,70.00000000000031,50.00000000000022,10.000000000000044,-50.00000000000022,-40.00000000000018
-0.0,-30.000000000000135,-30.000000000000135,10.000000000000044,10.000000000000044,-30.000000000000135,50.00000000000022,90.0000000000004,70.00000000000031,20.00000000000009,-40.00000000000018,-40.00000000000018
-0.0,-30.000000000000135,-20.00000000000009,10.000000000000044,10.000000000000044,-30.000000000000135,60.00000000000027,110.00000000000048,80.00000000000036,40.00000000000018,-30.000000000000135,-40.00000000000018
-0.0,-30.000000000000135,-30.000000000000135,10.000000000000044,10.000000000000044,-30.000000000000135,60.00000000000027,130.00000000000057,90.0000000000004,50.00000000000022,-30.000000000000135,-40.00000000000018
-0.0,-30.000000000000135,-30.000000000000135,10.000000000000044,10.000000000000044,-30.000000000000135,60.00000000000027,140.00000000000063,100.00000000000044,60.00000000000027,-20.00000000000009,-40.00000000000018
-0.0,-30.000000000000135,-20.00000000000009,10.000000000000044,-0.0,-30.000000000000135,70.00000000000031,160.0000000000007,110.00000000000048,70.00000000000031,-20.00000000000009,-40.00000000000018
-0.0,-30.000000000000135,-20.00000000000009,10.000000000000044,-0.0,-20.00000000000009,70.00000000000031,170.00000000000077,120.00000000000054,80.00000000000036,-10.000000000000044,-40.00000000000018
-0.0,-30.000000000000135,-20.00000000000009,10.000000000000044,-0.0,-20.00000000000009,70.00000000000031,180.0000000000008,130.00000000000057,90.0000000000004,-10.000000000000044,-30.000000000000135
-0.0,-30.000000000000135,-20.00000000000009,10.000000000000044,-0.0,-20.00000000000009,70.00000000000031,190.00000000000085,140.00000000000063,100.00000000000044,-0.0,-30.000000000000135
-0.0,-30.000000000000135,-20.00000000000009,10.000000000000044,-0.0,-20.00000000000009,70.00000000000031,190.00000000000085,150.00000000000065,100.00000000000044,-0.0,-30.000000000000135
-0.0,-20.00000000000009,-10.000000000000044,10.000000000000044,-0.0,-10.000000000000044,70.00000000000031,200.00000000000088,160.0000000000007,110.00000000000048,-0.0,-30.000000000000135
-0.0,-20.00000000000009,-10.000000000000044,-0.0,-0.0,-10.000000000000044,70.00000000000031,210.00000000000094,160.0000000000007,120.00000000000054,-0.0,-30.000000000000135
-0.0,-10.000000000000044,-10.000000000000044,-0.0,-0.0,-10.000000000000044,70.00000000000031,210.00000000000094,170.00000000000077,130.00000000000057,-0.0,-20.00000000000009
-0.0,-10.000000000000044,-0.0,-0.0,-0.0,-0.0,70.00000000000031,220.00000000000097,190.00000000000085,130.00000000000057,10.000000000000044,-20.00000000000009
-0.0,-0.0,-0.0,-0.0,-0.0,-0.0,70.00000000000031,230.00000000000102,200.00000000000088,140.00000000000063,20.00000000000009,-20.00000000000009
-0.0,-0.0,-0.0,-10.000000000000044,-0.0,10.000000000000044,70.00000000000031,240.00000000000108,210.00000000000094,150.00000000000065,20.00000000000009,-10.000000000000044
10.000000000000044,10.000000000000044,10.000000000000044,-20.00000000000009,-0.0,20.00000000000009,70.00000000000031,250.0000000000011,220.00000000000097,160.0000000000007,30.000000000000135,-10.000000000000044
10.000000000000044,20.00000000000009,20.00000000000009,-30.000000000000135,-0.0,30.000000000000135,70.00000000000031,260.00000000000114,230.00000000000102,180.0000000000008,40.00000000000018,-10.000000000000044
10.000000000000044,40.00000000000018,30.000000000000135,-40.00000000000018,-10.000000000000044,40.00000000000018,70.00000000000031,270.0000000000012,250.0000000000011,190.00000000000085,50.00000000000022,-0.0
10.000000000000044,50.00000000000022,50.00000000000022,-50.00000000000022,-10.000000000000044,60.00000000000027,70.00000000000031,290.0000000000013,260.00000000000114,200.00000000000088,60.00000000000027,-0.0
20.00000000000009,70.00000000000031,60.00000000000027,-50.00000000000022,-20.00000000000009,70.00000000000031,70.00000000000031,300.0000000000013,280.00000000000125,210.00000000000094,70.00000000000031,-0.0
20.00000000000009,80.00000000000036,70.00000000000031,-60.00000000000027,-20.00000000000009,80.00000000000036,70.00000000000031,310.00000000000136,300.0000000000013,230.00000000000102,70.00000000000031,-0.0
20.00000000000009,100.00000000000044,80.00000000000036,-70.00000000000031,-20.00000000000009,90.0000000000004,70.00000000000031,330.0000000000015,310.00000000000136,250.0000000000011,90.0000000000004,-0.0
30.000000000000135,100.00000000000044,80.00000000000036,-70.00000000000031,-20.00000000000009,100.00000000000044,60.00000000000027,350.00000000000153,330.0000000000015,270.0000000000012,100.00000000000044,10.000000000000044
30.000000000000135,110.00000000000048,80.00000000000036,-70.00000000000031,-20.00000000000009,100.00000000000044,60.00000000000027,370.00000000000165,350.00000000000153,290.0000000000013,100.00000000000044,20.00000000000009
30.000000000000135,120.00000000000054,80.00000000000036,-80.00000000000036,-20.00000000000009,100.00000000000044,60.00000000000027,390.0000000000017,370.00000000000165,300.0000000000013,120.00000000000054,30.000000000000135
40.00000000000018,120.00000000000054,70.00000000000031,-80.00000000000036,-10.000000000000044,90.0000000000004,60.00000000000027,420.0000000000019,400.00000000000176,330.0000000000015,130.00000000000057,30.000000000000135
40.00000000000018,110.00000000000048,60.00000000000027,-70.00000000000031,-10.000000000000044,80.00000000000036,60.00000000000027,440.00000000000193,420.0000000000019,350.00000000000153,150.00000000000065,40.00000000000018
40.00000000000018,100.00000000000044,40.00000000000018,-70.00000000000031,-0.0,70.00000000000031,60.00000000000027,470.0000000000021,450.000000000002,380.0000000000017,160.0000000000007,60.00000000000027
40.00000000000018,90.0000000000004,30.000000000000135,-60.00000000000027,-0.0,50.00000000000022,60.00000000000027,490.00000000000216,470.0000000000021,400.00000000000176,180.0000000000008,70.00000000000031
40.00000000000018,70.00000000000031,10.000000000000044,-50.00000000000022,-0.0,30.000000000000135,60.00000000000027,520.0000000000023,500.0000000000022,420.0000000000019,200.00000000000088,80.00000000000036
30.000000000000135,60.00000000000027,-0.0,-40.00000000000018,10.000000000000044,20.00000000000009,60.00000000000027,540.0000000000024,520.0000000000023,450.000000000002,220.00000000000097,90.0000000000004
20.00000000000009,40.00000000000018,-0.0,-20.00000000000009,10.000000000000044,-0.0,50.00000000000022,570.0000000000025,550.0000000000024,480.00000000000216,240.00000000000108,110.00000000000048
10.000000000000044,20.00000000000009,-10.000000000000044,-10.000000000000044,10.000000000000044,-0.0,50.00000000000022,600.0000000000026,570.0000000000025,500.0000000000022,260.00000000000114,120.00000000000054
-0.0,-0.0,-10.000000000000044,-0.0,-0.0,-10.000000000000044,50.00000000000022,620.0000000000027,590.0000000000026,520.0000000000023,280.00000000000125,130.00000000000057
-0.0,-10.000000000000044,-20.00000000000009,-0.0,-0.0,-20.00000000000009,50.00000000000022,640.0000000000028,610.0000000000027,540.0000000000024,300.0000000000013,150.00000000000065
-10.000000000000044,-20.00000000000009,-30.000000000000135,20.00000000000009,-0.0,-30.000000000000135,50.00000000000022,660.000000000003,630.0000000000028,560.0000000000025,330.0000000000015,170.00000000000077
-10.000000000000044,-40.00000000000018,-30.000000000000135,30.000000000000135,-0.0,-40.00000000000018,50.00000000000022,680.0000000000031,650.0000000000028,580.0000000000026,350.00000000000153,180.0000000000008
-10.000000000000044,-50.00000000000022,-40.00000000000018,30.000000000000135,-0.0,-50.00000000000022,40.00000000000018,700.0000000000031,660.000000000003,600.0000000000026,370.00000000000165,200.00000000000088
-10.000000000000044,-60.00000000000027,-40.00000000000018,40.00000000000018,10.000000000000044,-50.00000000000022,40.00000000000018,710.0000000000032,680.0000000000031,620.0000000000027,380.0000000000017,210.00000000000094
-10.000000000000044,-60.00000000000027,-50.00000000000022,40.00000000000018,10.000000000000044,-60.00000000000027,40.00000000000018,720.0000000000032,680.0000000000031,630.0000000000028,400.00000000000176,220.00000000000097
-10.000000000000044,-70.00000000000031,-60.00000000000027,40.00000000000018,20.00000000000009,-70.00000000000031,30.000000000000135,720.0000000000032,680.0000000000031,630.0000000000028,420.0000000000019,240.00000000000108
-10.000000000000044,-80.00000000000036,-70.00000000000031,50.00000000000022,20.00000000000009,-80.00000000000036,30.000000000000135,720.0000000000032,680.0000000000031,630.0000000000028,420.0000000000019,250.0000000000011
-10.000000000000044,-80.00000000000036,-80.00000000000036,50.00000000000022,30.000000000000135,-90.0000000000004,20.00000000000009,710.0000000000032,670.000000000003,630.0000000000028,430.00000000000193,260.00000000000114
-0.0,-90.0000000000004,-90.0000000000004,40.00000000000018,40.00000000000018,-90.0000000000004,10.000000000000044,690.0000000000031,650.0000000000028,620.0000000000027,440.00000000000193,270.0000000000012
10.000000000000044,-90.0000000000004,-100.00000000000044,30.000000000000135,50.00000000000022,-90.0000000000004,10.000000000000044,670.000000000003,630.0000000000028,600.0000000000026,440.00000000000193,270.0000000000012
40.00000000000018,-90.0000000000004,-100.00000000000044,-0.0,70.00000000000031,-80.00000000000036,-0.0,650.0000000000028,610.0000000000027,580.0000000000026,430.00000000000193,270.0000000000012
90.0000000000004,-60.00000000000027,-100.00000000000044,-50.00000000000022,90.0000000000004,-50.00000000000022,-0.0,620.0000000000027,570.0000000000025,560.0000000000025,420.0000000000019,270.0000000000012
150.00000000000065,-10.000000000000044,-80.00000000000036,-120.00000000000054,110.00000000000048,-0.0,-0.0,580.0000000000026,540.0000000000024,520.0000000000023,410.0000000000018,270.0000000000012
230.00000000000102,80.00000000000036,-30.000000000000135,-220.00000000000097,130.00000000000057,80.00000000000036,-0.0,540.0000000000024,500.0000000000022,490.00000000000216,390.0000000000017,260.00000000000114
310.00000000000136,200.00000000000088,30.000000000000135,-330.0000000000015,130.00000000000057,190.00000000000085,-10.000000000000044,500.0000000000022,460.00000000000205,450.000000000002,370.00000000000165,240.00000000000108
