I,II,III,aVR,aVL,aVF,V1,V2,V3,V4,V5,V6
-20.00000000000009,-0.0,20.00000000000009,-0.0,-20.00000000000009,10.000000000000044,-0.0,-0.0,-0.0,60.00000000000027,-0.0,-0.0
-20.00000000000009,-0.0,20.00000000000009,-0.0,-20.00000000000009,10.000000000000044,-10.000000000000044,20.00000000000009,-0.0,60.00000000000027,50.00000000000022,50.00000000000022
-20.00000000000009,-0.0,20.00000000000009,-0.0,-20.00000000000009,10.000000000000044,-10.000000000000044,20.00000000000009,-0.0,60.00000000000027,60.00000000000027,60.00000000000027
-20.00000000000009,-0.0,30.000000000000135,-0.0,-20.00000000000009,10.000000000000044,-20.00000000000009,10.000000000000044,-10.000000000000044,60.00000000000027,60.00000000000027,60.00000000000027
-20.00000000000009,-0.0,30.000000000000135,-0.0,-30.000000000000135,20.00000000000009,-20.00000000000009,10.000000000000044,-10.000000000000044,50.00000000000022,60.00000000000027,60.00000000000027
-20.00000000000009,-0.0,30.000000000000135,-0.0,-20.00000000000009,20.00000000000009,-30.000000000000135,-0.0,-20.00000000000009,50.00000000000022,50.00000000000022,50.00000000000022
-10.000000000000044,10.000000000000044,20.00000000000009,-0.0,-20.00000000000009,20.00000000000009,-30.000000000000135,-0.0,-20.00000000000009,40.00000000000018,50.00000000000022,50.00000000000022
-10.000000000000044,10.000000000000044,20.00000000000009,-0.0,-10.000000000000044,20.00000000000009,-30.000000000000135,-0.0,-30.000000000000135,20.00000000000009,40.00000000000018,40.00000000000018
-0.0,10.000000000000044,20.00000000000009,-0.0,-10.000000000000044,20.00000000000009,-30.000000000000135,-10.000000000000044,-30.000000000000135,10.000000000000044,30.000000000000135,30.000000000000135
-0.0,20.00000000000009,20.00000000000009,-10.000000000000044,-10.000000000000044,20.00000000000009,-30.000000000000135,-20.00000000000009,-40.00000000000018,-0.0,20.00000000000009,20.00000000000009
-0.0,20.00000000000009,20.00000000000009,-10.000000000000044,-0.0,20.00000000000009,-30.000000000000135,-30.000000000000135,-40.00000000000018,-0.0,-0.0,-0.0
-0.0,20.00000000000009,20.00000000000009,-20.00000000000009,-0.0,20.00000000000009,-30.000000000000135,-40.00000000000018,-50.00000000000022,-10.000000000000044,-0.0,-0.0
10.000000000000044,30.000000000000135,20.00000000000009,-30.000000000000135,-0.0,30.000000000000135,-30.000000000000135,-50.00000000000022,-50.00000000000022,-20.00000000000009,-0.0,-0.0
20.00000000000009,40.00000000000018,20.00000000000009,-30.000000000000135,-0.0,30.000000000000135,-30.000000000000135,-60.00000000000027,-60.00000000000027,-20.00000000000009,-10.000000000000044,-10.000000000000044
20.00000000000009,40.00000000000018,30.000000000000135,-40.00000000000018,-0.0,40.00000000000018,-40.00000000000018,-70.00000000000031,-60.00000000000027,-30.000000000000135,-10.000000000000044,-10.000000000000044
20.00000000000009,60.00000000000027,40.00000000000018,-50.00000000000022,-0.0,50.00000000000022,-40.00000000000018,-70.00000000000031,-70.00000000000031,-40.00000000000018,-20.00000000000009,-20.00000000000009
20.00000000000009,70.00000000000031,50.00000000000022,-60.00000000000027,-10.000000000000044,70.00000000000031,-50.00000000000022,-80.00000000000036,-70.00000000000031,-40.00000000000018,-20.00000000000009,-20.00000000000009
20.00000000000009,80.00000000000036,70.00000000000031,-60.00000000000027,-20.00000000000009,80.00000000000036,-50.00000000000022,-80.00000000000036,-70.00000000000031,-40.00000000000018,-30.000000000000135,-30.000000000000135
20.00000000000009,100.00000000000044,80.00000000000036,-70.00000000000031,-30.000000000000135,100.00000000000044,-50.00000000000022,-90.0000000000004,-80.00000000000036,-40.00000000000018,-30.000000000000135,-30.000000000000135
20.00000000000009,110.00000000000048,90.0000000000004,-70.00000000000031,-30.000000000000135,100.00000000000044,-50.00000000000022,-90.0000000000004,-70.00000000000031,-40.00000000000018,-30.000000000000135,-30.000000000000135
20.00000000000009,120.00000000000054,100.00000000000044,-70.00000000000031,-30.000000000000135,110.00000000000048,-50.00000000000022,-90.0000000000004,-70.00000000000031,-50.00000000000022,-40.00000000000018,-40.00000000000018
20.00000000000009,120.00000000000054,100.00000000000044,-70.00000000000031,-30.000000000000135,110.00000000000048,-50.00000000000022,-90.0000000000004,-70.00000000000031,-50.00000000000022,-40.00000000000018,-40.00000000000018
20.00000000000009,130.00000000000057,100.00000000000044,-80.00000000000036,-30.000000000000135,110.00000000000048,-50.00000000000022,-90.0000000000004,-70.00000000000031,-50.00000000000022,-40.00000000000018,-40.00000000000018
20.00000000000009,130.00000000000057,100.00000000000044,-80.00000000000036,-30.000000000000135,110.00000000000048,-50.00000000000022,-90.0000000000004,-70.00000000000031,-50.00000000000022,-40.00000000000018,-40.00000000000018
20.00000000000009,130.00000000000057,100.00000000000044,-80.00000000000036,-30.000000000000135,110.00000000000048,-50.00000000000022,-90.0000000000004,-70.00000000000031,-40.00000000000018,-40.00000000000018,-40.00000000000018
20.00000000000009,120.00000000000054,90.0000000000004,-70.00000000000031,-30.000000000000135,100.00000000000044,-50.00000000000022,-90.0000000000004,-70.00000000000031,-40.00000000000018,-40.00000000000018,-40.00000000000018
20.00000000000009,110.00000000000048,80.00000000000036,-60.00000000000027,-30.000000000000135,90.0000000000004,-50.00000000000022,-90.0000000000004,-70.00000000000031,-40.00000000000018,-40.00000000000018,-40.00000000000018
10.000000000000044,100.00000000000044,70.00000000000031,-50.00000000000022,-20.00000000000009,80.00000000000036,-50.00000000000022,-90.0000000000004,-70.00000000000031,-40.00000000000018,-30.000000000000135,-40.00000000000018
10.000000000000044,90.0000000000004,60.00000000000027,-40.00000000000018,-20.00000000000009,60.00000000000027,-50.00000000000022,-100.00000000000044,-70.00000000000031,-30.000000000000135,-30.000000000000135,-40.00000000000018
-0.0,70.00000000000031,40.00000000000018,-30.000000000000135,-10.000000000000044,40.00000000000018,-50.00000000000022,-100.00000000000044,-70.00000000000031,-20.00000000000009,-20.00000000000009,-30.000000000000135
-0.0,50.00000000000022,20.00000000000009,-20.00000000000009,-10.000000000000044,30.000000000000135,-50.00000000000022,-90.0000000000004,-50.00000000000022,-190.00000000000085,-10.000000000000044,-20.00000000000009
-0.0,30.000000000000135,10.000000000000044,-10.000000000000044,-0.0,10.000000000000044,-40.00000000000018,-60.00000000000027,-20.00000000000009,-180.0000000000008,-0.0,-10.000000000000044
-0.0,20.00000000000009,-0.0,-0.0,-0.0,-0.0,-40.00000000000018,-10.000000000000044,-0.0,-340.00000000000153,40.00000000000018,10.000000000000044
-0.0,-0.0,-0.0,-0.0,-0.0,-0.0,-30.000000000000135,50.00000000000022,10.000000000000044,-340.00000000000153,100.00000000000044,60.00000000000027
-0.0,-0.0,-0.0,-0.0,-0.0,-0.0,-20.00000000000009,-410.0000000000018,30.000000000000135,-330.0000000000015,-360.0000000000016,-290.0000000000013
-0.0,-0.0,-10.000000000000044,-0.0,-0.0,-10.000000000000044,-50.00000000000022,-390.0000000000017,20.00000000000009,-320.0000000000014,-360.0000000000016,-290.0000000000013
-0.0,-10.000000000000044,-10.000000000000044,-0.0,-0.0,-10.000000000000044,-100.00000000000044,-390.0000000000017,-30.000000000000135,-310.00000000000136,-370.00000000000165,-290.0000000000013
-0.0,-10.000000000000044,-20.00000000000009,-0.0,-0.0,-20.00000000000009,-190.00000000000085,-380.0000000000017,-110.00000000000048,-350.00000000000153,-370.00000000000165,-290.0000000000013
-0.0,-20.00000000000009,-20.00000000000009,-0.0,-0.0,-20.00000000000009,-270.0000000000012,-370.00000000000165,-230.00000000000102,-350.00000000000153,-370.00000000000165,-290.0000000000013
-0.0,-20.00000000000009,-20.00000000000009,10.000000000000044,10.000000000000044,-20.00000000000009,-400.00000000000176,-370.00000000000165,-190.00000000000085,-350.00000000000153,-390.0000000000017,-290.0000000000013
-0.0,-20.00000000000009,-20.00000000000009,10.000000000000044,-0.0,-20.00000000000009,-540.0000000000024,-360.0000000000016,-190.00000000000085,-350.00000000000153,-390.0000000000017,-280.00000000000125
-0.0,-30.000000000000135,-20.00000000000009,10.000000000000044,-0.0,-20.00000000000009,-670.000000000003,-390.0000000000017,-190.00000000000085,-350.00000000000153,-400.00000000000176,-280.00000000000125
-10.000000000000044,-30.000000000000135,-20.00000000000009,20.00000000000009,-0.0,-20.00000000000009,-770.0000000000034,-390.0000000000017,-190.00000000000085,-290.0000000000013,-400.00000000000176,-280.00000000000125
-10.000000000000044,-30.000000000000135,-20.00000000000009,20.00000000000009,-0.0,-30.000000000000135,-840.0000000000038,-390.0000000000017,-240.00000000000108,-290.0000000000013,-390.0000000000017,-280.00000000000125
-20.00000000000009,-40.00000000000018,-10.000000000000044,30.000000000000135,-0.0,-20.00000000000009,-870.0000000000039,-390.0000000000017,-290.0000000000013,-290.0000000000013,-390.0000000000017,-290.0000000000013
-20.00000000000009,-40.00000000000018,-10.000000000000044,30.000000000000135,-0.0,-20.00000000000009,-850.0000000000038,-390.0000000000017,-340.00000000000153,-290.0000000000013,-330.0000000000015,-330.0000000000015
-30.000000000000135,-40.00000000000018,-10.000000000000044,30.000000000000135,-10.000000000000044,-20.00000000000009,-800.0000000000035,-300.0000000000013,-340.00000000000153,-290.0000000000013,-330.0000000000015,-340.00000000000153
-30.000000000000135,-40.00000000000018,-0.0,30.000000000000135,-10.000000000000044,-20.00000000000009,-720.0000000000032,-240.00000000000108,-340.00000000000153,-350.00000000000153,-330.0000000000015,-340.00000000000153
-30.000000000000135,-30.000000000000135,-0.0,30.000000000000135,-10.000000000000044,-10.000000000000044,-620.0000000000027,-240.00000000000108,-340.00000000000153,-350.00000000000153,-330.0000000000015,-340.00000000000153
-30.000000000000135,-30.000000000000135,-0.0,20.00000000000009,-10.000000000000044,-10.000000000000044,-510.0000000000023,-240.00000000000108,-420.0000000000019,-350.00000000000153,-330.0000000000015,-340.00000000000153
-20.00000000000009,-30.000000000000135,-0.0,20.00000000000009,-0.0,-10.000000000000044,-400.00000000000176,-320.0000000000014,-320.0000000000014,-50.00000000000022,30.000000000000135,10.000000000000044
-10.000000000000044,-20.00000000000009,-10.000000000000044,10.000000000000044,-0.0,-20.00000000000009,-300.0000000000013,-270.0000000000012,-220.00000000000097,-70.00000000000031,-10.000000000000044,-10.000000000000044
-0.0,-20.00000000000009,-30.000000000000135,-0.0,10.000000000000044,-20.00000000000009,-210.00000000000094,-210.00000000000094,-150.00000000000065,-70.00000000000031,-30.000000000000135,-20.00000000000009
30.000000000000135,-20.00000000000009,-40.00000000000018,-10.000000000000044,30.000000000000135,-20.00000000000009,-150.00000000000065,-150.00000000000065,-90.0000000000004,-60.00000000000027,-30.000000000000135,-20.00000000000009
60.00000000000027,-10.000000000000044,-50.00000000000022,-40.00000000000018,50.00000000000022,-20.00000000000009,-90.0000000000004,-100.00000000000044,-50.00000000000022,-50.00000000000022,-30.000000000000135,-20.00000000000009
100.00000000000044,10.000000000000044,-50.00000000000022,-80.00000000000036,70.00000000000031,-0.0,-50.00000000000022,-70.00000000000031,-30.000000000000135,-50.00000000000022,-30.000000000000135,-20.00000000000009
150.00000000000065,50.00000000000022,-50.00000000000022,-120.00000000000054,90.0000000000004,20.00000000000009,-30.000000000000135,-50.00000000000022,-10.000000000000044,-60.00000000000027,-40.00000000000018,-30.000000000000135
190.00000000000085,100.00000000000044,-30.000000000000135,-280.00000000000125,100.00000000000044,60.00000000000027,-10.000000000000044,-30.000000000000135,-0.0,-70.00000000000031,-40.00000000000018,-40.00000000000018
230.00000000000102,160.0000000000007,-10.000000000000044,-290.0000000000013,110.00000000000048,100.00000000000044,-0.0,-30.000000000000135,-0.0,-70.00000000000031,-50.00000000000022,-40.00000000000018
250.0000000000011,220.00000000000097,-0.0,-300.0000000000013,120.00000000000054,120.00000000000054,-0.0,-20.00000000000009,10.000000000000044,-70.00000000000031,-60.00000000000027,-50.00000000000022
270.0000000000012,260.00000000000114,-0.0,-290.0000000000013,130.00000000000057,140.00000000000063,10.000000000000044,-10.000000000000044,20.00000000000009,-70.00000000000031,-60.00000000000027,-50.00000000000022
250.0000000000011,280.00000000000125,-0.0,-280.00000000000125,120.00000000000054,130.00000000000057,20.00000000000009,-10.000000000000044,30.000000000000135,-70.00000000000031,-60.00000000000027,-60.00000000000027
230.00000000000102,260.00000000000114,-0.0,-210.00000000000094,110.00000000000048,110.00000000000048,30.000000000000135,-0.0,40.00000000000018,-70.00000000000031,-60.00000000000027,-60.00000000000027
190.00000000000085,220.00000000000097,-0.0,-190.00000000000085,90.0000000000004,90.0000000000004,30.000000000000135,-0.0,50.00000000000022,-70.00000000000031,-60.00000000000027,-50.00000000000022
140.00000000000063,180.0000000000008,-0.0,-160.0000000000007,70.00000000000031,60.00000000000027,40.00000000000018,-0.0,50.00000000000022,-60.00000000000027,-60.00000000000027,-60.00000000000027
90.0000000000004,130.00000000000057,-0.0,-90.0000000000004,40.00000000000018,30.000000000000135,50.00000000000022,10.000000000000044,60.00000000000027,-60.00000000000027,-60.00000000000027,-60.00000000000027
40.00000000000018,80.00000000000036,-0.0,-50.00000000000022,10.000000000000044,20.00000000000009,50.00000000000022,20.00000000000009,70.00000000000031,-60.00000000000027,-60.00000000000027,-60.00000000000027
-0.0,40.00000000000018,-0.0,-10.000000000000044,-0.0,10.000000000000044,60.00000000000027,20.00000000000009,80.00000000000036,-50.00000000000022,-50.00000000000022,-60.00000000000027
-10.000000000000044,10.000000000000044,-0.0,-0.0,-10.000000000000044,-0.0,60.00000000000027,30.000000000000135,80.00000000000036,-50.00000000000022,-50.00000000000022,-50.00000000000022
-30.000000000000135,-0.0,10.000000000000044,10.000000000000044,-20.00000000000009,-0.0,70.00000000000031,40.00000000000018,90.0000000000004,-50.00000000000022,-50.00000000000022,-50.00000000000022
-40.00000000000018,-10.000000000000044,10.000000000000044,20.00000000000009,-20.00000000000009,-0.0,70.00000000000031,40.00000000000018,100.00000000000044,-50.00000000000022,-50.00000000000022,-50.00000000000022
-40.00000000000018,-20.00000000000009,10.000000000000044,20.00000000000009,-20.00000000000009,-0.0,70.00000000000031,50.00000000000022,100.00000000000044,-50.00000000000022,-50.00000000000022,-50.00000000000022
-30.000000000000135,-20.00000000000009,10.000000000000044,20.00000000000009,-20.00000000000009,-0.0,70.00000000000031,60.00000000000027,110.00000000000048,-50.00000000000022,-50.00000000000022,-50.00000000000022
-30.000000000000135,-10.000000000000044,10.000000000000044,10.000000000000044,-20.00000000000009,-0.0,80.00000000000036,70.00000000000031,120.00000000000054,-40.00000000000018,-50.00000000000022,-50.00000000000022
-20.00000000000009,-10.000000000000044,-0.0,10.000000000000044,-10.000000000000044,-0.0,80.00000000000036,80.00000000000036,130.00000000000057,-40.00000000000018,-50.00000000000022,-50.00000000000022
-20.00000000000009,-10.000000000000044,-0.0,10.000000000000044,-10.000000000000044,-0.0,90.0000000000004,90.0000000000004,140.00000000000063,-30.000000000000135,-50.00000000000022,-50.00000000000022
-10.000000000000044,-10.000000000000044,-0.0,20.00000000000009,-0.0,-10.000000000000044,100.00000000000044,100.00000000000044,160.0000000000007,-20.00000000000009,-50.00000000000022,-50.00000000000022
-20.00000000000009,-20.00000000000009,-0.0,20.00000000000009,-0.0,-10.000000000000044,100.00000000000044,120.00000000000054,180.0000000000008,-10.000000000000044,-40.00000000000018,-50.00000000000022
-20.00000000000009,-30.000000000000135,-10.000000000000044,20.00000000000009,-0.0,-20.00000000000009,110.00000000000048,140.00000000000063,200.00000000000088,-10.000000000000044,-30.000000000000135,-40.00000000000018
-10.000000000000044,-30.000000000000135,-10.000000000000044,20.00000000000009,-0.0,-20.00000000000009,120.00000000000054,160.0000000000007,220.00000000000097,-0.0,-30.000000000000135,-40.00000000000018
-10.000000000000044,-30.000000000000135,-10.000000000000044,20.00000000000009,-0.0,-20.00000000000009,130.00000000000057,180.0000000000008,240.00000000000108,-0.0,-20.00000000000009,-30.000000000000135
-10.000000000000044,-30.000000000000135,-10.000000000000044,20.00000000000009,-0.0,-20.00000000000009,140.00000000000063,200.00000000000088,270.0000000000012,10.000000000000044,-20.00000000000009,-20.00000000000009
-10.000000000000044,-30.000000000000135,-10.000000000000044,20.00000000000009,-0.0,-20.00000000000009,150.00000000000065,230.00000000000102,290.0000000000013,20.00000000000009,-10.000000000000044,-20.00000000000009
-10.000000000000044,-30.000000000000135,-10.000000000000044,20.00000000000009,-0.0,-20.00000000000009,160.0000000000007,250.0000000000011,310.00000000000136,30.000000000000135,-0.0,-10.000000000000044
-10.000000000000044,-30.000000000000135,-10.000000000000044,20.00000000000009,-0.0,-20.00000000000009,170.00000000000077,280.00000000000125,340.00000000000153,40.00000000000018,-0.0,-10.000000000000044
-10.000000000000044,-30.000000000000135,-10.000000000000044,10.000000000000044,-0.0,-20.00000000000009,180.0000000000008,300.0000000000013,360.0000000000016,50.00000000000022,-0.0,-0.0
-10.000000000000044,-30.000000000000135,-10.000000000000044,10.000000000000044,-0.0,-10.000000000000044,190.00000000000085,320.0000000000014,380.0000000000017,70.00000000000031,10.000000000000044,-0.0
-0.0,-20.00000000000009,-10.000000000000044,10.000000000000044,-0.0,-20.00000000000009,200.00000000000088,340.00000000000153,400.00000000000176,80.00000000000036,20.00000000000009,10.000000000000044
-0.0,-20.00000000000009,-20.00000000000009,10.000000000000044,-0.0,-20.00000000000009,200.00000000000088,360.0000000000016,420.0000000000019,90.0000000000004,30.000000000000135,20.00000000000009
-0.0,-20.00000000000009,-20.00000000000009,10.000000000000044,-0.0,-20.00000000000009,210.00000000000094,380.0000000000017,430.00000000000193,100.00000000000044,40.00000000000018,30.000000000000135
-0.0,-20.00000000000009,-20.00000000000009,10.000000000000044,10.000000000000044,-20.00000000000009,220.00000000000097,390.0000000000017,440.00000000000193,100.00000000000044,50.00000000000022,40.00000000000018
-0.0,-20.00000000000009,-20.00000000000009,-0.0,10.000000000000044,-20.00000000000009,220.00000000000097,400.00000000000176,440.00000000000193,110.00000000000048,60.00000000000027,50.00000000000022
-0.0,-20.00000000000009,-20.00000000000009,-0.0,10.000000000000044,-20.00000000000009,220.00000000000097,410.0000000000018,440.00000000000193,110.00000000000048,70.00000000000031,50.00000000000022
-0.0,-20.00000000000009,-20.00000000000009,-0.0,10.000000000000044,-20.00000000000009,220.00000000000097,410.0000000000018,440.00000000000193,100.00000000000044,70.00000000000031,60.00000000000027
-0.0,-20.00000000000009,-20.00000000000009,-0.0,10.000000000000044,-20.00000000000009,220.00000000000097,410.0000000000018,440.00000000000193,100.00000000000044,70.00000000000031,60.00000000000027
10.000000000000044,-10.000000000000044,-20.00000000000009,-0.0,10.000000000000044,-10.000000000000044,220.00000000000097,400.00000000000176,430.00000000000193,90.0000000000004,80.00000000000036,70.00000000000031
10.000000000000044,-10.000000000000044,-20.00000000000009,-0.0,10.000000000000044,-10.000000000000044,210.00000000000094,390.0000000000017,410.0000000000018,90.0000000000004,80.00000000000036,70.00000000000031
10.000000000000044,-0.0,-10.000000000000044,-0.0,10.000000000000044,-0.0,210.00000000000094,380.0000000000017,400.00000000000176,80.00000000000036,70.00000000000031,70.00000000000031
20.00000000000009,-0.0,-10.000000000000044,-10.000000000000044,10.000000000000044,-0.0,200.00000000000088,360.0000000000016,380.0000000000017,70.00000000000031,70.00000000000031,70.00000000000031
20.00000000000009,-0.0,-10.000000000000044,-10.000000000000044,20.00000000000009,-0.0,190.00000000000085,340.00000000000153,350.00000000000153,60.00000000000027,70.00000000000031,70.00000000000031
30.000000000000135,-0.0,-10.000000000000044,-20.00000000000009,20.00000000000009,-0.0,180.0000000000008,310.00000000000136,320.0000000000014,50.00000000000022,60.00000000000027,70.00000000000031
30.000000000000135,10.000000000000044,-10.000000000000044,-20.00000000000009,20.00000000000009,-0.0,160.0000000000007,290.0000000000013,290.0000000000013,40.00000000000018,60.00000000000027,60.00000000000027
30.000000000000135,10.000000000000044,-0.0,-30.000000000000135,20.00000000000009,-0.0,150.00000000000065,250.0000000000011,260.00000000000114,30.000000000000135,50.00000000000022,60.00000000000027
30.000000000000135,20.00000000000009,-0.0,-30.000000000000135,20.00000000000009,10.000000000000044,130.00000000000057,220.00000000000097,220.00000000000097,20.00000000000009,40.00000000000018,50.00000000000022
40.00000000000018,30.000000000000135,-0.0,-40.00000000000018,20.00000000000009,20.00000000000009,110.00000000000048,190.00000000000085,190.00000000000085,10.000000000000044,30.000000000000135,40.00000000000018
40.00000000000018,40.00000000000018,-0.0,-50.00000000000022,10.000000000000044,20.00000000000009,100.00000000000044,160.0000000000007,160.0000000000007,-0.0,20.00000000000009,30.000000000000135
50.00000000000022,50.00000000000022,10.000000000000044,-60.00000000000027,20.00000000000009,30.000000000000135,90.0000000000004,130.00000000000057,130.00000000000057,-0.0,20.00000000000009,30.000000000000135
60.00000000000027,60.00000000000027,10.000000000000044,-70.00000000000031,20.00000000000009,40.00000000000018,70.00000000000031,110.00000000000048,110.00000000000048,-0.0,10.000000000000044,20.00000000000009
70.00000000000031,80.00000000000036,20.00000000000009,-80.00000000000036,20.00000000000009,50.00000000000022,60.00000000000027,80.00000000000036,90.0000000000004,-0.0,-0.0,10.000000000000044
80.00000000000036,90.0000000000004,20.00000000000009,-100.00000000000044,20.00000000000009,60.00000000000027,50.00000000000022,60.00000000000027,70.00000000000031,-0.0,-0.0,-0.0
90.0000000000004,100.00000000000044,20.00000000000009,-100.00000000000044,20.00000000000009,70.00000000000031,40.00000000000018,40.00000000000018,50.00000000000022,-0.0,-0.0,-0.0
90.0000000000004,110.00000000000048,30.000000000000135,-110.00000000000048,30.000000000000135,80.00000000000036,30.000000000000135,30.000000000000135,30.000000000000135,-10.000000000000044,-0.0,-0.0
100.00000000000044,130.00000000000057,30.000000000000135,-120.00000000000054,30.000000000000135,80.00000000000036,20.00000000000009,10.000000000000044,20.00000000000009,-10.000000000000044,-0.0,-0.0
100.00000000000044,130.00000000000057,40.00000000000018,-120.00000000000054,30.000000000000135,90.0000000000004,20.00000000000009,-0.0,10.000000000000044,-10.000000000000044,-10.000000000000044,-10.000000000000044
100.00000000000044,140.00000000000063,40.00000000000018,-130.00000000000057,20.00000000000009,90.0000000000004,10.000000000000044,-0.0,10.000000000000044,-20.00000000000009,-10.000000000000044,-10.000000000000044
100.00000000000044,150.00000000000065,50.00000000000022,-130.00000000000057,20.00000000000009,100.00000000000044,10.000000000000044,-0.0,-0.0,-20.00000000000009,-10.000000000000044,-20.00000000000009
100.00000000000044,160.0000000000007,50.00000000000022,-130.00000000000057,20.00000000000009,100.00000000000044,-0.0,-10.000000000000044,-0.0,-20.00000000000009,-20.00000000000009,-20.00000000000009
100.00000000000044,160.0000000000007,60.00000000000027,-130.00000000000057,10.000000000000044,110.00000000000048,-0.0,-10.000000000000044,-0.0,-20.00000000000009,-20.00000000000009,-20.00000000000009
100.00000000000044,160.0000000000007,60.00000000000027,-130.00000000000057,10.000000000000044,110.00000000000048,-0.0,-10.000000000000044,-0.0,-20.00000000000009,-20.00000000000009,-20.00000000000009
90.0000000000004,160.0000000000007,60.00000000000027,-130.00000000000057,10.000000000000044,110.00000000000048,-0.0,-10.000000000000044,-0.0,-20.00000000000009,-20.00000000000009,-20.00000000000009
80.00000000000036,160.0000000000007,70.00000000000031,-120.00000000000054,-0.0,110.00000000000048,-0.0,-20.00000000000009,-0.0,-20.00000000000009,-20.00000000000009,-20.00000000000009
70.00000000000031,150.00000000000065,70.00000000000031,-110.00000000000048,-0.0,100.00000000000044,-0.0,-10.000000000000044,-0.0,-20.00000000000009,-10.000000000000044,-20.00000000000009
60.00000000000027,140.00000000000063,60.00000000000027,-100.00000000000044,-0.0,100.00000000000044,-0.0,-10.000000000000044,-0.0,-10.000000000000044,-10.000000000000044,-20.00000000000009
50.00000000000022,130.00000000000057,60.00000000000027,-90.0000000000004,-0.0,90.0000000000004,-0.0,-10.000000000000044,-0.0,-10.000000000000044,-10.000000000000044,-20.00000000000009
40.00000000000018,110.00000000000048,50.00000000000022,-80.00000000000036,-0.0,80.00000000000036,-0.0,-10.000000000000044,-0.0,-10.000000000000044,-10.000000000000044,-10.000000000000044
30.000000000000135,100.00000000000044,50.00000000000022,-60.00000000000027,-0.0,70.00000000000031,-0.0,-10.000000000000044,-0.0,-10.000000000000044,-0.0,-10.000000000000044
20.00000000000009,90.0000000000004,50.00000000000022,-50.00000000000022,-10.000000000000044,60.00000000000027,-0.0,-0.0,-0.0,-0.0,-0.0,-10.000000000000044
10.000000000000044,70.00000000000031,40.00000000000018,-40.00000000000018,-10.000000000000044,50.00000000000022,-0.0,-0.0,-0.0,-0.0,-0.0,-10.000000000000044
-0.0,60.00000000000027,40.00000000000018,-30.000000000000135,-10.000000000000044,40.00000000000018,-0.0,-0.0,-0.0,-0.0,-0.0,-10.000000000000044
-0.0,50.00000000000022,40.00000000000018,-20.00000000000009,-10.000000000000044,40.00000000000018,-0.0,-0.0,-0.0,-0.0,-0.0,-10.000000000000044
-0.0,40.00000000000018,30.000000000000135,-10.000000000000044,-10.000000000000044,30.000000000000135,-0.0,-0.0,-0.0,-0.0,-0.0,-10.000000000000044
-0.0,30.000000000000135,30.000000000000135,-10.000000000000044,-10.000000000000044,20.00000000000009,-0.0,-0.0,-0.0,-0.0,-0.0,-0.0
-0.0,20.00000000000009,20.00000000000009,-0.0,-10.000000000000044,20.00000000000009,-0.0,-0.0,-0.0,-0.0,-0.0,-0.0
-0.0,10.000000000000044,10.000000000000044,-0.0,-10.000000000000044,10.000000000000044,-0.0,-0.0,-0.0,-0.0,-0.0,-0.0
-0.0,10.000000000000044,-0.0,-0.0,-0.0,-0.0,-0.0,-0.0,-0.0,-0.0,-0.0,-0.0
-0.0,-0.0,-0.0,-0.0,-0.0,-0.0,-0.0,-0.0,-0.0,-0.0,-0.0,-0.0
-0.0,-0.0,-0.0,-0.0,-0.0,-0.0,-0.0,-0.0,-0.0,-0.0,-0.0,-0.0
-0.0,-0.0,-0.0,-0.0,-0.0,-0.0,-0.0,-0.0,-0.0,-0.0,-0.0,-0.0
-0.0,-0.0,-0.0,-0.0,-0.0,-0.0,-0.0,-0.0,-0.0,-0.0,-0.0,-0.0
-0.0,-0.0,-0.0,-0.0,-0.0,-0.0,-0.0,-0.0,-0.0,-0.0,-0.0,-0.0
-0.0,-0.0,-0.0,-0.0,-0.0,-0.0,-0.0,-0.0,-0.0,-0.0,-0.0,-0.0
-0.0,-0.0,-0.0,-0.0,-0.0,-0.0,-0.0,-0.0,-0.0,-0.0,-0.0,-0.0
-0.0,-0.0,-0.0,-0.0,-0.0,-0.0,-0.0,-0.0,-0.0,-0.0,-0.0,-0.0
-0.0,-0.0,-0.0,-0.0,-0.0,-0.0,-0.0,-0.0,-0.0,-0.0,-0.0,-0.0
-0.0,-0.0,-0.0,-0.0,-0.0,-0.0,-0.0,-0.0,-0.0,-0.0,-0.0,-0.0
-0.0,-10.000000000000044,-0.0,-0.0,-0.0,-0.0,-0.0,-0.0,-0.0,-0.0,-0.0,-0.0
-0.0,-10.000000000000044,-0.0,-0.0,-0.0,-0.0,-0.0,-0.0,-0.0,-0.0,-0.0,-0.0
-0.0,-10.000000000000044,-0.0,-0.0,-0.0,-0.0,-0.0,-0.0,-0.0,-0.0,-0.0,-0.0
-0.0,-0.0,-0.0,-0.0,-0.0,-0.0,-0.0,-0.0,-0.0,-0.0,-0.0,-0.0
-0.0,-0.0,-0.0,-0.0,-0.0,-0.0,-0.0,-0.0,-0.0,-0.0,-0.0,-0.0
-0.0,-0.0,-0.0,-0.0,-0.0,-0.0,-0.0,-0.0,-0.0,-0.0,-0.0,-0.0
-0.0,-0.0,-0.0,-0.0,-0.0,-0.0,-0.0,-10.000000000000044,-0.0,-0.0,-0.0,-0.0
-0.0,-0.0,-0.0,-0.0,-0.0,-0.0,-0.0,-10.000000000000044,-0.0,-10.000000000000044,-0.0,-0.0
-0.0,-0.0,-0.0,-0.0,-0.0,-0.0,-0.0,-10.000000000000044,-0.0,-10.000000000000044,-0.0,-0.0
-0.0,-0.0,-0.0,-0.0,-0.0,-0.0,-0.0,-10.000000000000044,-10.000000000000044,-10.000000000000044,-0.0,-0.0
-0.0,-0.0,-0.0,-0.0,-0.0,-0.0,-0.0,-10.000000000000044,-10.000000000000044,-10.000000000000044,-0.0,-0.0
-10.000000000000044,-0.0,-0.0,-0.0,-0.0,-0.0,-0.0,-10.000000000000044,-10.000000000000044,-10.000000000000044,-0.0,-0.0
-10.000000000000044,-0.0,-0.0,-0.0,-0.0,-0.0,-0.0,-20.00000000000009,-10.000000000000044,-10.000000000000044,-0.0,-0.0
-10.000000000000044,-0.0,-0.0,-0.0,-0.0,-0.0,-0.0,-20.00000000000009,-10.000000000000044,-10.000000000000044,-0.0,-0.0
-10.000000000000044,-0.0,-0.0,-0.0,-0.0,-0.0,-0.0,-20.00000000000009,-10.000000000000044,-10.000000000000044,-0.0,-0.0
-0.0,-0.0,-0.0,-0.0,-0.0,-0.0,-0.0,-20.00000000000009,-10.000000000000044,-10.000000000000044,-0.0,-0.0
-0.0,-0.0,-0.0,-0.0,-0.0,-0.0,-0.0,-20.00000000000009,-10.000000000000044,-0.0,-0.0,-0.0
-0.0,-0.0,-0.0,-0.0,-0.0,-0.0,-0.0,-10.000000000000044,-10.000000000000044,-0.0,-0.0,-0.0
-0.0,-0.0,-0.0,-0.0,-0.0,-0.0,-0.0,-10.000000000000044,-10.000000000000044,-0.0,-0.0,-0.0
-0.0,-0.0,-0.0,-0.0,-0.0,-0.0,-0.0,-10.000000000000044,-10.000000000000044,-0.0,-0.0,-0.0
-0.0,-0.0,-0.0,-0.0,-0.0,-0.0,-0.0,-10.000000000000044,-0.0,-0.0,10.000000000000044,-0.0
-0.0,-0.0,-0.0,-0.0,-0.0,-0.0,-0.0,-10.000000000000044,-0.0,-0.0,10.000000000000044,-0.0
-0.0,-0.0,-0.0,-0.0,-0.0,-0.0,-0.0,-0.0,-0.0,-0.0,10.000000000000044,10.000000000000044
-0.0,-0.0,-0.0,-0.0,-0.0,-0.0,-0.0,-0.0,-0.0,-0.0,20.00000000000009,10.000000000000044
-0.0,-0.0,-0.0,-0.0,-0.0,-0.0,-0.0,-0.0,-0.0,10.000000000000044,20.00000000000009,10.000000000000044
-0.0,-0.0,-0.0,-0.0,-0.0,-0.0,-0.0,-0.0,-0.0,20.00000000000009,20.00000000000009,20.00000000000009
-0.0,-0.0,-0.0,-0.0,-0.0,-0.0,-0.0,-0.0,-0.0,20.00000000000009,30.000000000000135,20.00000000000009
-0.0,-0.0,-0.0,-0.0,-0.0,-0.0,-0.0,10.000000000000044,-0.0,30.000000000000135,40.00000000000018,30.000000000000135
-0.0,-0.0,-0.0,-0.0,-0.0,-0.0,-0.0,10.000000000000044,-0.0,40.00000000000018,40.00000000000018,40.00000000000018
-0.0,-0.0,-0.0,-0.0,-0.0,-0.0,-0.0,20.00000000000009,-0.0,50.00000000000022,50.00000000000022,50.00000000000022
-0.0,-0.0,-0.0,-0.0,-0.0,-0.0,-0.0,20.00000000000009,-0.0,50.00000000000022,60.00000000000027,60.00000000000027
-0.0,-0.0,-0.0,-0.0,-0.0,-0.0,-10.000000000000044,20.00000000000009,-0.0,60.00000000000027,70.00000000000031,70.00000000000031
-0.0,-0.0,-0.0,-0.0,-0.0,-0.0,-10.000000000000044,20.00000000000009,-0.0,60.00000000000027,80.00000000000036,70.00000000000031
-0.0,-0.0,-0.0,-0.0,-0.0,-0.0,-20.00000000000009,20.00000000000009,-0.0,60.00000000000027,80.00000000000036,70.00000000000031
-0.0,-0.0,-0.0,-0.0,-0.0,-0.0,-20.00000000000009,20.00000000000009,-0.0,50.00000000000022,80.00000000000036,70.00000000000031
-0.0,-0.0,-0.0,-0.0,-0.0,-0.0,-30.000000000000135,10.000000000000044,-10.000000000000044,40.00000000000018,80.00000000000036,70.00000000000031
-0.0,-0.0,-0.0,-0.0,-0.0,-0.0,-30.000000000000135,-0.0,-10.000000000000044,30.000000000000135,70.00000000000031,60.00000000000027
-0.0,-0.0,-0.0,-0.0,-0.0,-0.0,-30.000000000000135,-0.0,-20.00000000000009,20.00000000000009,60.00000000000027,50.00000000000022
-0.0,-0.0,-0.0,-0.0,-0.0,-0.0,-30.000000000000135,-10.000000000000044,-30.000000000000135,10.000000000000044,40.00000000000018,40.00000000000018
-0.0,-0.0,-0.0,-0.0,-0.0,-0.0,-30.000000000000135,-20.00000000000009,-30.000000000000135,-0.0,30.000000000000135,30.000000000000135
-0.0,-0.0,-0.0,-0.0,-0.0,-0.0,-30.000000000000135,-30.000000000000135,-40.00000000000018,-0.0,20.00000000000009,20.00000000000009
-0.0,10.000000000000044,10.000000000000044,-10.000000000000044,-10.000000000000044,10.000000000000044,-30.000000000000135,-40.00000000000018,-40.00000000000018,-10.000000000000044,10.000000000000044,10.000000000000044
-0.0,10.000000000000044,20.00000000000009,-10.000000000000044,-10.000000000000044,20.00000000000009,-30.000000000000135,-50.00000000000022,-50.00000000000022,-20.00000000000009,-0.0,-0.0
-0.0,20.00000000000009,30.000000000000135,-10.000000000000044,-10.000000000000044,30.000000000000135,-30.000000000000135,-50.00000000000022,-50.00000000000022,-20.00000000000009,-0.0,-0.0
-0.0,30.000000000000135,40.00000000000018,-20.00000000000009,-20.00000000000009,40.00000000000018,-30.000000000000135,-60.00000000000027,-50.00000000000022,-30.000000000000135,-0.0,-0.0
-0.0,40.00000000000018,50.00000000000022,-20.00000000000009,-20.00000000000009,50.00000000000022,-30.000000000000135,-60.00000000000027,-60.00000000000027,-30.000000000000135,-0.0,-0.0
-0.0,50.00000000000022,60.00000000000027,-30.000000000000135,-30.000000000000135,60.00000000000027,-30.000000000000135,-70.00000000000031,-60.00000000000027,-30.000000000000135,-0.0,-0.0
-0.0,60.00000000000027,70.00000000000031,-40.00000000000018,-30.000000000000135,70.00000000000031,-40.00000000000018,-70.00000000000031,-60.00000000000027,-30.000000000000135,-10.000000000000044,-0.0
-0.0,70.00000000000031,80.00000000000036,-50.00000000000022,-30.000000000000135,80.00000000000036,-40.00000000000018,-70.00000000000031,-60.00000000000027,-40.00000000000018,-10.000000000000044,-0.0
10.000000000000044,90.0000000000004,80.00000000000036,-60.00000000000027,-30.000000000000135,90.0000000000004,-40.00000000000018,-70.00000000000031,-60.00000000000027,-40.00000000000018,-10.000000000000044,-0.0
10.000000000000044,100.00000000000044,90.0000000000004,-60.00000000000027,-30.000000000000135,100.00000000000044,-30.000000000000135,-70.00000000000031,-60.00000000000027,-40.00000000000018,-10.000000000000044,-0.0
20.00000000000009,110.00000000000048,90.0000000000004,-70.00000000000031,-30.000000000000135,100.00000000000044,-30.000000000000135,-70.00000000000031,-60.00000000000027,-40.00000000000018,-10.000000000000044,-0.0
20.00000000000009,110.00000000000048,90.0000000000004,-70.00000000000031,-30.000000000000135,100.00000000000044,-30.000000000000135,-70.00000000000031,-60.00000000000027,-40.00000000000018,-10.000000000000044,-0.0
30.000000000000135,120.00000000000054,90.0000000000004,-70.00000000000031,-20.00000000000009,100.00000000000044,-30.000000000000135,-70.00000000000031,-60.00000000000027,-40.00000000000018,-10.000000000000044,-0.0
30.000000000000135,120.00000000000054,80.00000000000036,-70.00000000000031,-20.00000000000009,100.00000000000044,-30.000000000000135,-70.00000000000031,-60.00000000000027,-40.00000000000018,-10.000000000000044,-0.0
30.000000000000135,110.00000000000048,70.00000000000031,-70.00000000000031,-10.000000000000044,80.00000000000036,-30.000000000000135,-70.00000000000031,-60.00000000000027,-40.00000000000018,-10.000000000000044,-0.0
20.00000000000009,100.00000000000044,60.00000000000027,-60.00000000000027,-10.000000000000044,70.00000000000031,-30.000000000000135,-70.00000000000031,-70.00000000000031,-40.00000000000018,-10.000000000000044,-0.0
20.00000000000009,90.0000000000004,50.00000000000022,-50.00000000000022,-10.000000000000044,60.00000000000027,-30.000000000000135,-70.00000000000031,-70.00000000000031,-30.000000000000135,-10.000000000000044,-0.0
10.000000000000044,70.00000000000031,40.00000000000018,-40.00000000000018,-10.000000000000044,40.00000000000018,-40.00000000000018,-70.00000000000031,-70.00000000000031,-30.000000000000135,-10.000000000000044,-0.0
-0.0,50.00000000000022,30.000000000000135,-20.00000000000009,-10.000000000000044,30.000000000000135,-40.00000000000018,-70.00000000000031,-70.00000000000031,-20.00000000000009,-10.000000000000044,-0.0
-0.0,30.000000000000135,10.000000000000044,-10.000000000000044,-0.0,10.000000000000044,-40.00000000000018,-60.00000000000027,-50.00000000000022,10.000000000000044,-0.0,-0.0
-0.0,10.000000000000044,-0.0,-0.0,-0.0,-0.0,-30.000000000000135,-30.000000000000135,-20.00000000000009,70.00000000000031,10.000000000000044,10.000000000000044
-0.0,-0.0,-0.0,-0.0,-0.0,-0.0,-20.00000000000009,20.00000000000009,-0.0,170.00000000000077,60.00000000000027,40.00000000000018
-0.0,-0.0,-0.0,-0.0,-0.0,-10.000000000000044,-10.000000000000044,80.00000000000036,20.00000000000009,310.00000000000136,130.00000000000057,90.0000000000004
-0.0,-10.000000000000044,-20.00000000000009,10.000000000000044,-0.0,-20.00000000000009,-20.00000000000009,170.00000000000077,40.00000000000018,490.00000000000216,230.00000000000102,160.0000000000007
-0.0,-20.00000000000009,-20.00000000000009,10.000000000000044,-0.0,-30.000000000000135,-50.00000000000022,260.00000000000114,20.00000000000009,710.0000000000032,370.00000000000165,250.0000000000011
-0.0,-30.000000000000135,-30.000000000000135,20.00000000000009,10.000000000000044,-30.000000000000135,-100.00000000000044,360.0000000000016,-30.000000000000135,940.0000000000042,520.0000000000023,370.00000000000165
-0.0,-30.000000000000135,-30.000000000000135,20.00000000000009,10.000000000000044,-30.000000000000135,-180.0000000000008,430.00000000000193,-110.00000000000048,1160.0000000000052,700.0000000000031,500.0000000000022
-0.0,-40.00000000000018,-30.000000000000135,20.00000000000009,10.000000000000044,-30.000000000000135,-290.0000000000013,470.0000000000021,-230.00000000000102,1350.000000000006,880.0000000000039,620.0000000000027
-0.0,-40.00000000000018,-30.000000000000135,20.00000000000009,10.000000000000044,-40.00000000000018,-430.00000000000193,460.00000000000205,-370.00000000000165,1470.0000000000066,1030.0000000000045,730.0000000000033
-10.000000000000044,-40.00000000000018,-30.000000000000135,20.00000000000009,-0.0,-40.00000000000018,-560.0000000000025,410.0000000000018,-520.0000000000023,1500.0000000000066,1130.000000000005,790.0000000000035
-10.000000000000044,-50.00000000000022,-30.000000000000135,30.000000000000135,-0.0,-40.00000000000018,-680.0000000000031,330.0000000000015,-640.0000000000028,1420.0000000000064,1160.0000000000052,810.0000000000036
-20.00000000000009,-50.00000000000022,-20.00000000000009,30.000000000000135,-0.0,-40.00000000000018,-780.0000000000034,200.00000000000088,-740.0000000000033,1270.0000000000057,1110.000000000005,760.0000000000034
-20.00000000000009,-50.00000000000022,-20.00000000000009,30.000000000000135,-0.0,-30.000000000000135,-840.0000000000038,60.00000000000027,-800.0000000000035,1050.0000000000048,1000.0000000000044,680.0000000000031
-20.00000000000009,-50.00000000000022,-20.00000000000009,40.00000000000018,-0.0,-30.000000000000135,-860.0000000000039,-70.00000000000031,-810.0000000000036,810.0000000000036,850.0000000000038,570.0000000000025
-20.00000000000009,-50.00000000000022,-20.00000000000009,30.000000000000135,-0.0,-30.000000000000135,-840.0000000000038,-190.00000000000085,-770.0000000000034,570.0000000000025,670.000000000003,440.00000000000193
-30.000000000000135,-50.00000000000022,-20.00000000000009,30.000000000000135,-0.0,-30.000000000000135,-780.0000000000034,-270.0000000000012,-710.0000000000032,360.0000000000016,490.00000000000216,320.0000000000014
-30.000000000000135,-50.00000000000022,-10.000000000000044,40.00000000000018,-0.0,-30.000000000000135,-690.0000000000031,-320.0000000000014,-610.0000000000027,190.00000000000085,330.0000000000015,210.00000000000094
-30.000000000000135,-50.00000000000022,-10.000000000000044,40.00000000000018,-0.0,-30.000000000000135,-580.0000000000026,-340.00000000000153,-500.0000000000022,60.00000000000027,210.00000000000094,120.00000000000054
-30.000000000000135,-50.00000000000022,-10.000000000000044,40.00000000000018,-0.0,-30.000000000000135,-470.0000000000021,-320.0000000000014,-390.0000000000017,-10.000000000000044,110.00000000000048,50.00000000000022
-30.000000000000135,-50.00000000000022,-20.00000000000009,40.00000000000018,-0.0,-40.00000000000018,-360.0000000000016,-280.00000000000125,-290.0000000000013,-50.00000000000022,30.000000000000135,10.000000000000044
-20.00000000000009,-50.00000000000022,-30.000000000000135,30.000000000000135,-0.0,-40.00000000000018,-260.00000000000114,-230.00000000000102,-200.00000000000088,-70.00000000000031,-0.0,-10.000000000000044
-0.0,-50.00000000000022,-50.00000000000022,20.00000000000009,10.000000000000044,-50.00000000000022,-180.0000000000008,-180.0000000000008,-130.00000000000057,-70.00000000000031,-10.000000000000044,-20.00000000000009
10.000000000000044,-50.00000000000022,-60.00000000000027,-0.0,30.000000000000135,-50.00000000000022,-110.00000000000048,-130.00000000000057,-80.00000000000036,-60.00000000000027,-20.00000000000009,-20.00000000000009
40.00000000000018,-40.00000000000018,-60.00000000000027,-20.00000000000009,50.00000000000022,-40.00000000000018,-60.00000000000027,-90.0000000000004,-40.00000000000018,-50.00000000000022,-20.00000000000009,-20.00000000000009
90.0000000000004,-10.000000000000044,-70.00000000000031,-60.00000000000027,70.00000000000031,-20.00000000000009,-20.00000000000009,-70.00000000000031,-10.000000000000044,-60.00000000000027,-20.00000000000009,-20.00000000000009
130.00000000000057,10.000000000000044,-60.00000000000027,-100.00000000000044,90.0000000000004,10.000000000000044,-0.0,-50.00000000000022,-0.0,-60.00000000000027,-30.000000000000135,-30.000000000000135
170.00000000000077,60.00000000000027,-40.00000000000018,-150.00000000000065,100.00000000000044,40.00000000000018,-0.0,-30.000000000000135,10.000000000000044,-70.00000000000031,-40.00000000000018,-40.00000000000018
210.00000000000094,130.00000000000057,-20.00000000000009,-200.00000000000088,110.00000000000048,80.00000000000036,20.00000000000009,-20.00000000000009,10.000000000000044,-80.00000000000036,-40.00000000000018,-40.00000000000018
240.00000000000108,190.00000000000085,-0.0,-240.00000000000108,120.00000000000054,100.00000000000044,30.000000000000135,-20.00000000000009,20.00000000000009,-80.00000000000036,-50.00000000000022,-50.00000000000022
250.0000000000011,230.00000000000102,-0.0,-250.0000000000011,120.00000000000054,120.00000000000054,30.000000000000135,-10.000000000000044,30.000000000000135,-80.00000000000036,-50.00000000000022,-50.00000000000022
240.00000000000108,250.0000000000011,-0.0,-250.0000000000011,120.00000000000054,110.00000000000048,40.00000000000018,-10.000000000000044,30.000000000000135,-70.00000000000031,-50.00000000000022,-50.00000000000022
220.00000000000097,240.00000000000108,-10.000000000000044,-220.00000000000097,110.00000000000048,90.0000000000004,40.00000000000018,-10.000000000000044,40.00000000000018,-70.00000000000031,-60.00000000000027,-50.00000000000022
180.0000000000008,200.00000000000088,-20.00000000000009,-170.00000000000077,100.00000000000044,70.00000000000031,50.00000000000022,-0.0,50.00000000000022,-70.00000000000031,-60.00000000000027,-50.00000000000022
140.00000000000063,160.0000000000007,-20.00000000000009,-120.00000000000054,80.00000000000036,40.00000000000018,50.00000000000022,-0.0,50.00000000000022,-70.00000000000031,-60.00000000000027,-50.00000000000022
90.0000000000004,110.00000000000048,-20.00000000000009,-80.00000000000036,50.00000000000022,10.000000000000044,60.00000000000027,-0.0,60.00000000000027,-70.00000000000031,-60.00000000000027,-50.00000000000022
40.00000000000018,60.00000000000027,-20.00000000000009,-40.00000000000018,30.000000000000135,-0.0,60.00000000000027,-0.0,70.00000000000031,-60.00000000000027,-60.00000000000027,-50.00000000000022
10.000000000000044,30.000000000000135,-10.000000000000044,-10.000000000000044,10.000000000000044,-0.0,70.00000000000031,10.000000000000044,80.00000000000036,-60.00000000000027,-50.00000000000022,-50.00000000000022
-0.0,-0.0,-0.0,-0.0,-0.0,-10.000000000000044,70.00000000000031,20.00000000000009,90.0000000000004,-60.00000000000027,-50.00000000000022,-50.00000000000022
-20.00000000000009,-10.000000000000044,-0.0,10.000000000000044,-0.0,-10.000000000000044,80.00000000000036,30.000000000000135,100.00000000000044,-50.00000000000022,-50.00000000000022,-50.00000000000022
-20.00000000000009,-20.00000000000009,-0.0,20.00000000000009,-10.000000000000044,-10.000000000000044,80.00000000000036,40.00000000000018,100.00000000000044,-50.00000000000022,-50.00000000000022,-50.00000000000022
-30.000000000000135,-20.00000000000009,-0.0,20.00000000000009,-10.000000000000044,-10.000000000000044,90.0000000000004,50.00000000000022,110.00000000000048,-50.00000000000022,-50.00000000000022,-50.00000000000022
-20.00000000000009,-20.00000000000009,-0.0,20.00000000000009,-10.000000000000044,-10.000000000000044,90.0000000000004,50.00000000000022,120.00000000000054,-50.00000000000022,-50.00000000000022,-50.00000000000022
-20.00000000000009,-20.00000000000009,-0.0,20.00000000000009,-10.000000000000044,-10.000000000000044,90.0000000000004,60.00000000000027,130.00000000000057,-40.00000000000018,-50.00000000000022,-50.00000000000022
-20.00000000000009,-20.00000000000009,-10.000000000000044,20.00000000000009,-0.0,-20.00000000000009,100.00000000000044,80.00000000000036,140.00000000000063,-40.00000000000018,-50.00000000000022,-50.00000000000022
-20.00000000000009,-30.000000000000135,-20.00000000000009,30.000000000000135,-0.0,-30.000000000000135,100.00000000000044,90.0000000000004,160.0000000000007,-40.00000000000018,-40.00000000000018,-40.00000000000018
-20.00000000000009,-40.00000000000018,-20.00000000000009,30.000000000000135,-0.0,-30.000000000000135,110.00000000000048,100.00000000000044,170.00000000000077,-30.000000000000135,-40.00000000000018,-40.00000000000018
-20.00000000000009,-50.00000000000022,-30.000000000000135,30.000000000000135,-0.0,-40.00000000000018,110.00000000000048,110.00000000000048,190.00000000000085,-20.00000000000009,-40.00000000000018,-40.00000000000018
-20.00000000000009,-50.00000000000022,-30.000000000000135,40.00000000000018,-0.0,-40.00000000000018,120.00000000000054,130.00000000000057,210.00000000000094,-10.000000000000044,-30.000000000000135,-40.00000000000018
-20.00000000000009,-60.00000000000027,-30.000000000000135,30.000000000000135,-0.0,-40.00000000000018,130.00000000000057,150.00000000000065,230.00000000000102,-10.000000000000044,-30.000000000000135,-30.000000000000135
-10.000000000000044,-60.00000000000027,-30.000000000000135,30.000000000000135,-0.0,-40.00000000000018,140.00000000000063,170.00000000000077,260.00000000000114,-0.0,-20.00000000000009,-30.000000000000135
-10.000000000000044,-50.00000000000022,-30.000000000000135,30.000000000000135,10.000000000000044,-40.00000000000018,140.00000000000063,200.00000000000088,290.0000000000013,-0.0,-20.00000000000009,-20.00000000000009
-0.0,-50.00000000000022,-40.00000000000018,20.00000000000009,10.000000000000044,-40.00000000000018,160.0000000000007,220.00000000000097,310.00000000000136,10.000000000000044,-10.000000000000044,-10.000000000000044
-0.0,-50.00000000000022,-40.00000000000018,20.00000000000009,10.000000000000044,-40.00000000000018,170.00000000000077,250.0000000000011,340.00000000000153,30.000000000000135,-0.0,-0.0
-0.0,-40.00000000000018,-40.00000000000018,20.00000000000009,10.000000000000044,-40.00000000000018,180.0000000000008,280.00000000000125,360.0000000000016,40.00000000000018,-0.0,-0.0
-0.0,-40.00000000000018,-40.00000000000018,20.00000000000009,10.000000000000044,-40.00000000000018,190.00000000000085,300.0000000000013,380.0000000000017,50.00000000000022,10.000000000000044,-0.0
-0.0,-40.00000000000018,-40.00000000000018,20.00000000000009,10.000000000000044,-40.00000000000018,200.00000000000088,320.0000000000014,400.00000000000176,70.00000000000031,20.00000000000009,10.000000000000044
-0.0,-40.00000000000018,-30.000000000000135,20.00000000000009,10.000000000000044,-40.00000000000018,210.00000000000094,340.00000000000153,420.0000000000019,80.00000000000036,30.000000000000135,20.00000000000009
-0.0,-40.00000000000018,-30.000000000000135,20.00000000000009,10.000000000000044,-30.000000000000135,220.00000000000097,350.00000000000153,430.00000000000193,80.00000000000036,40.00000000000018,40.00000000000018
-0.0,-40.00000000000018,-30.000000000000135,10.000000000000044,10.000000000000044,-30.000000000000135,220.00000000000097,370.00000000000165,440.00000000000193,90.0000000000004,50.00000000000022,50.00000000000022
-0.0,-30.000000000000135,-30.000000000000135,10.000000000000044,10.000000000000044,-30.000000000000135,220.00000000000097,380.0000000000017,450.000000000002,90.0000000000004,60.00000000000027,60.00000000000027
-0.0,-30.000000000000135,-30.000000000000135,10.000000000000044,10.000000000000044,-30.000000000000135,220.00000000000097,390.0000000000017,450.000000000002,100.00000000000044,60.00000000000027,60.00000000000027
-0.0,-30.000000000000135,-30.000000000000135,-0.0,20.00000000000009,-30.000000000000135,230.00000000000102,390.0000000000017,450.000000000002,100.00000000000044,70.00000000000031,70.00000000000031
10.000000000000044,-20.00000000000009,-30.000000000000135,-0.0,20.00000000000009,-30.000000000000135,220.00000000000097,400.00000000000176,450.000000000002,90.0000000000004,70.00000000000031,80.00000000000036
10.000000000000044,-20.00000000000009,-30.000000000000135,-0.0,20.00000000000009,-20.00000000000009,220.00000000000097,390.0000000000017,440.00000000000193,90.0000000000004,70.00000000000031,80.00000000000036
20.00000000000009,-10.000000000000044,-30.000000000000135,-0.0,20.00000000000009,-20.00000000000009,210.00000000000094,380.0000000000017,430.00000000000193,80.00000000000036,70.00000000000031,90.0000000000004
20.00000000000009,-10.000000000000044,-30.000000000000135,-0.0,20.00000000000009,-20.00000000000009,210.00000000000094,370.00000000000165,410.0000000000018,70.00000000000031,70.00000000000031,90.0000000000004
20.00000000000009,-10.000000000000044,-30.000000000000135,-0.0,20.00000000000009,-10.000000000000044,200.00000000000088,360.0000000000016,390.0000000000017,60.00000000000027,70.00000000000031,90.0000000000004
20.00000000000009,-0.0,-20.00000000000009,-0.0,20.00000000000009,-10.000000000000044,190.00000000000085,340.00000000000153,370.00000000000165,50.00000000000022,70.00000000000031,90.0000000000004
20.00000000000009,-0.0,-20.00000000000009,-10.000000000000044,20.00000000000009,-10.000000000000044,180.0000000000008,310.00000000000136,350.00000000000153,40.00000000000018,60.00000000000027,90.0000000000004
20.00000000000009,-0.0,-20.00000000000009,-10.000000000000044,20.00000000000009,-10.000000000000044,170.00000000000077,290.0000000000013,310.00000000000136,40.00000000000018,60.00000000000027,90.0000000000004
20.00000000000009,-0.0,-20.00000000000009,-10.000000000000044,20.00000000000009,-0.0,150.00000000000065,260.00000000000114,280.00000000000125,30.000000000000135,50.00000000000022,80.00000000000036
30.000000000000135,-0.0,-20.00000000000009,-20.00000000000009,30.000000000000135,-0.0,140.00000000000063,230.00000000000102,250.0000000000011,20.00000000000009,40.00000000000018,80.00000000000036
40.00000000000018,-0.0,-20.00000000000009,-30.000000000000135,30.000000000000135,-0.0,120.00000000000054,200.00000000000088,220.00000000000097,10.000000000000044,40.00000000000018,70.00000000000031
50.00000000000022,10.000000000000044,-20.00000000000009,-40.00000000000018,40.00000000000018,-0.0,110.00000000000048,170.00000000000077,180.0000000000008,-0.0,30.000000000000135,60.00000000000027
60.00000000000027,20.00000000000009,-20.00000000000009,-50.00000000000022,40.00000000000018,-0.0,90.0000000000004,140.00000000000063,150.00000000000065,-0.0,20.00000000000009,50.00000000000022
70.00000000000031,30.000000000000135,-10.000000000000044,-60.00000000000027,40.00000000000018,10.000000000000044,80.00000000000036,110.00000000000048,130.00000000000057,-0.0,10.000000000000044,40.00000000000018
70.00000000000031,50.00000000000022,-0.0,-70.00000000000031,40.00000000000018,20.00000000000009,70.00000000000031,90.0000000000004,100.00000000000044,-0.0,10.000000000000044,40.00000000000018
80.00000000000036,60.00000000000027,-0.0,-90.0000000000004,30.000000000000135,40.00000000000018,50.00000000000022,70.00000000000031,80.00000000000036,-0.0,-0.0,30.000000000000135
90.0000000000004,80.00000000000036,10.000000000000044,-100.00000000000044,30.000000000000135,50.00000000000022,50.00000000000022,50.00000000000022,60.00000000000027,-0.0,-0.0,20.00000000000009
90.0000000000004,100.00000000000044,20.00000000000009,-100.00000000000044,30.000000000000135,60.00000000000027,40.00000000000018,40.00000000000018,50.00000000000022,-0.0,-0.0,10.000000000000044
100.00000000000044,110.00000000000048,20.00000000000009,-110.00000000000048,30.000000000000135,70.00000000000031,30.000000000000135,20.00000000000009,30.000000000000135,-0.0,-0.0,-0.0
100.00000000000044,120.00000000000054,30.000000000000135,-120.00000000000054,30.000000000000135,80.00000000000036,20.00000000000009,10.000000000000044,20.00000000000009,-0.0,-0.0,-0.0
100.00000000000044,130.00000000000057,30.000000000000135,-120.00000000000054,30.000000000000135,90.0000000000004,20.00000000000009,-0.0,20.00000000000009,-10.000000000000044,-10.000000000000044,-0.0
110.00000000000048,140.00000000000063,40.00000000000018,-130.00000000000057,30.000000000000135,90.0000000000004,10.000000000000044,-0.0,10.000000000000044,-10.000000000000044,-10.000000000000044,-0.0
110.00000000000048,150.00000000000065,40.00000000000018,-130.00000000000057,30.000000000000135,100.00000000000044,10.000000000000044,-0.0,-0.0,-10.000000000000044,-10.000000000000044,-0.0
110.00000000000048,150.00000000000065,40.00000000000018,-130.00000000000057,30.000000000000135,100.00000000000044,-0.0,-0.0,-0.0,-10.000000000000044,-10.000000000000044,-0.0
100.00000000000044,160.0000000000007,50.00000000000022,-130.00000000000057,20.00000000000009,100.00000000000044,-0.0,-0.0,-0.0,-10.000000000000044,-10.000000000000044,-0.0
100.00000000000044,160.0000000000007,50.00000000000022,-130.00000000000057,20.00000000000009,100.00000000000044,-0.0,-0.0,-0.0,-10.000000000000044,-10.000000000000044,-0.0
100.00000000000044,150.00000000000065,50.00000000000022,-120.00000000000054,20.00000000000009,100.00000000000044,-0.0,-0.0,-0.0,-10.000000000000044,-10.000000000000044,-0.0
90.0000000000004,150.00000000000065,50.00000000000022,-120.00000000000054,10.000000000000044,100.00000000000044,-0.0,-10.000000000000044,-0.0,-10.000000000000044,-10.000000000000044,-0.0
80.00000000000036,150.00000000000065,50.00000000000022,-110.00000000000048,10.000000000000044,90.0000000000004,-0.0,-10.000000000000044,-0.0,-10.000000000000044,-10.000000000000044,-0.0
70.00000000000031,140.00000000000063,50.00000000000022,-100.00000000000044,10.000000000000044,90.0000000000004,-0.0,-10.000000000000044,-0.0,-10.000000000000044,-10.000000000000044,-0.0
60.00000000000027,130.00000000000057,50.00000000000022,-100.00000000000044,-0.0,80.00000000000036,-0.0,-10.000000000000044,-0.0,-10.000000000000044,-10.000000000000044,-0.0
50.00000000000022,120.00000000000054,40.00000000000018,-80.00000000000036,-0.0,70.00000000000031,-0.0,-10.000000000000044,-0.0,-10.000000000000044,-10.000000000000044,-0.0
40.00000000000018,100.00000000000044,40.00000000000018,-70.00000000000031,-0.0,60.00000000000027,-0.0,-10.000000000000044,-0.0,-10.000000000000044,-10.000000000000044,-0.0
30.000000000000135,90.0000000000004,30.000000000000135,-60.00000000000027,-0.0,50.00000000000022,-0.0,-10.000000000000044,-0.0,-10.000000000000044,-10.000000000000044,-0.0
20.00000000000009,70.00000000000031,20.00000000000009,-40.00000000000018,-0.0,40.00000000000018,-0.0,-0.0,-0.0,-0.0,-10.000000000000044,-0.0
20.00000000000009,50.00000000000022,20.00000000000009,-30.000000000000135,-0.0,30.000000000000135,-0.0,-0.0,-0.0,-0.0,-10.000000000000044,-0.0
10.000000000000044,40.00000000000018,10.000000000000044,-20.00000000000009,-0.0,20.00000000000009,-0.0,-0.0,-0.0,-0.0,-10.000000000000044,-0.0
-0.0,30.000000000000135,10.000000000000044,-10.000000000000044,-0.0,10.000000000000044,-0.0,-0.0,-0.0,-0.0,-0.0,-0.0
-0.0,20.00000000000009,-0.0,-10.000000000000044,-0.0,10.000000000000044,-0.0,-0.0,-0.0,-0.0,-0.0,-0.0
-0.0,10.000000000000044,-0.0,-0.0,-0.0,-0.0,-0.0,-0.0,-0.0,-0.0,-0.0,-0.0
-0.0,10.000000000000044,-0.0,-0.0,-0.0,-0.0,-0.0,-0.0,-0.0,-0.0,-0.0,-0.0
-0.0,-0.0,-0.0,-0.0,-0.0,-0.0,-0.0,-0.0,-0.0,-0.0,-0.0,-0.0
-0.0,-0.0,-0.0,-0.0,-0.0,-0.0,-0.0,-0.0,-0.0,-0.0,-0.0,-0.0
-0.0,-0.0,-0.0,-0.0,-0.0,-0.0,-0.0,-0.0,-0.0,-0.0,-0.0,-0.0
-0.0,-0.0,-0.0,-0.0,-0.0,-0.0,-0.0,-0.0,-0.0,-0.0,-0.0,-0.0
-0.0,-0.0,-0.0,-0.0,-0.0,-0.0,-0.0,-0.0,-0.0,-0.0,-0.0,-0.0
-0.0,-0.0,-0.0,-0.0,-0.0,-0.0,-0.0,-0.0,-0.0,-0.0,-0.0,-0.0
-0.0,-0.0,-10.000000000000044,-0.0,-0.0,-10.000000000000044,-0.0,-0.0,-0.0,-0.0,-0.0,-0.0
-0.0,-10.000000000000044,-10.000000000000044,-0.0,-0.0,-10.000000000000044,-0.0,-0.0,-0.0,-0.0,-0.0,-0.0
-0.0,-10.000000000000044,-10.000000000000044,-0.0,-0.0,-10.000000000000044,-0.0,-0.0,-0.0,-0.0,-0.0,-0.0
-0.0,-10.000000000000044,-10.000000000000044,-0.0,-0.0,-10.000000000000044,-0.0,-0.0,-0.0,-0.0,-0.0,-0.0
-0.0,-10.000000000000044,-10.000000000000044,-0.0,-0.0,-10.000000000000044,-0.0,-0.0,-0.0,-0.0,-0.0,-0.0
-0.0,-10.000000000000044,-10.000000000000044,-0.0,-0.0,-10.000000000000044,-0.0,-0.0,-0.0,-0.0,-0.0,-0.0
-0.0,-10.000000000000044,-10.000000000000044,-0.0,-0.0,-10.000000000000044,-0.0,-0.0,-0.0,-0.0,-0.0,-0.0
-0.0,-10.000000000000044,-10.000000000000044,-0.0,-0.0,-10.000000000000044,-0.0,-0.0,-0.0,-0.0,-0.0,-0.0
-0.0,-10.000000000000044,-10.000000000000044,-0.0,-0.0,-10.000000000000044,-0.0,-0.0,-0.0,-0.0,-0.0,-0.0
-0.0,-10.000000000000044,-10.000000000000044,-0.0,-0.0,-10.000000000000044,-0.0,-0.0,-0.0,-0.0,-0.0,-0.0
-0.0,-10.000000000000044,-10.000000000000044,-0.0,-0.0,-10.000000000000044,-0.0,-10.000000000000044,-0.0,-0.0,-0.0,-0.0
-0.0,-10.000000000000044,-0.0,10.000000000000044,-0.0,-10.000000000000044,-0.0,-10.000000000000044,-0.0,-0.0,-0.0,-0.0
-0.0,-10.000000000000044,-0.0,10.000000000000044,-0.0,-10.000000000000044,-0.0,-10.000000000000044,-0.0,-0.0,-0.0,-0.0
-10.000000000000044,-10.000000000000044,-0.0,10.000000000000044,-0.0,-0.0,-0.0,-10.000000000000044,-0.0,-10.000000000000044,-0.0,-0.0
-10.000000000000044,-10.000000000000044,-0.0,10.000000000000044,-0.0,-0.0,-0.0,-10.000000000000044,-0.0,-10.000000000000044,-0.0,-0.0
-0.0,-10.000000000000044,-0.0,-0.0,-0.0,-0.0,-0.0,-10.000000000000044,-0.0,-10.000000000000044,-0.0,-0.0
-0.0,-0.0,-0.0,-0.0,-0.0,-0.0,-0.0,-10.000000000000044,-10.000000000000044,-10.000000000000044,-0.0,-0.0
-0.0,-0.0,-0.0,-0.0,-0.0,-0.0,-0.0,-10.000000000000044,-10.000000000000044,-10.000000000000044,-0.0,-0.0
-0.0,-0.0,-0.0,-0.0,-0.0,-0.0,-0.0,-20.00000000000009,-10.000000000000044,-10.000000000000044,-0.0,-0.0
-0.0,-0.0,-0.0,-0.0,-0.0,-0.0,-0.0,-20.00000000000009,-10.000000000000044,-10.000000000000044,-0.0,-0.0
-0.0,-0.0,-0.0,-0.0,-0.0,-0.0,-0.0,-20.00000000000009,-10.000000000000044,-10.000000000000044,-0.0,-0.0
-0.0,-0.0,-0.0,-0.0,-0.0,-0.0,-0.0,-20.00000000000009,-10.000000000000044,-10.000000000000044,-0.0,-0.0
-0.0,-0.0,-0.0,-0.0,-0.0,-0.0,-0.0,-10.000000000000044,-10.000000000000044,-10.000000000000044,-0.0,-0.0
-0.0,-0.0,-0.0,-0.0,-0.0,-0.0,-0.0,-10.000000000000044,-10.000000000000044,-0.0,-0.0,-0.0
-0.0,-0.0,-0.0,-0.0,-0.0,-0.0,-0.0,-10.000000000000044,-0.0,-0.0,-0.0,-0.0
-0.0,-0.0,-0.0,-0.0,-0.0,-0.0,-0.0,-10.000000000000044,-0.0,-0.0,-0.0,-0.0
-0.0,-0.0,-0.0,-0.0,-0.0,-0.0,-0.0,-0.0,-0.0,-0.0,10.000000000000044,-0.0
-0.0,-0.0,-0.0,-0.0,-0.0,-0.0,-0.0,-0.0,-0.0,-0.0,10.000000000000044,10.000000000000044
-0.0,-0.0,-0.0,-0.0,-0.0,-0.0,10.000000000000044,-0.0,-0.0,-0.0,10.000000000000044,10.000000000000044
-0.0,-0.0,-0.0,-0.0,-0.0,-0.0,10.000000000000044,-0.0,-0.0,10.000000000000044,20.00000000000009,10.000000000000044
-0.0,-0.0,-0.0,-0.0,-0.0,-0.0,10.000000000000044,-0.0,-0.0,20.00000000000009,30.000000000000135,20.00000000000009
-0.0,-0.0,-0.0,-0.0,-0.0,-0.0,10.000000000000044,-0.0,-0.0,30.000000000000135,30.000000000000135,20.00000000000009
-0.0,-0.0,-0.0,-0.0,-0.0,-0.0,10.000000000000044,10.000000000000044,-0.0,30.000000000000135,40.00000000000018,30.000000000000135
-0.0,-0.0,-0.0,-0.0,-0.0,-0.0,10.000000000000044,20.00000000000009,-0.0,40.00000000000018,50.00000000000022,40.00000000000018
-0.0,-0.0,-0.0,-0.0,-0.0,-0.0,-0.0,20.00000000000009,-0.0,50.00000000000022,60.00000000000027,50.00000000000022
-0.0,-0.0,-0.0,-0.0,-0.0,-0.0,-0.0,20.00000000000009,-0.0,60.00000000000027,60.00000000000027,50.00000000000022
-0.0,-0.0,-0.0,-0.0,-0.0,-0.0,-0.0,20.00000000000009,-0.0,60.00000000000027,70.00000000000031,60.00000000000027
-0.0,-0.0,-0.0,-0.0,-0.0,-0.0,-0.0,20.00000000000009,-0.0,60.00000000000027,70.00000000000031,60.00000000000027
-0.0,-0.0,-0.0,-0.0,-0.0,-0.0,-10.000000000000044,10.000000000000044,-10.000000000000044,50.00000000000022,70.00000000000031,70.00000000000031
-0.0,-10.000000000000044,-0.0,-0.0,-0.0,-0.0,-10.000000000000044,10.000000000000044,-10.000000000000044,50.00000000000022,70.00000000000031,60.00000000000027
-0.0,-10.000000000000044,-0.0,-0.0,-0.0,-0.0,-10.000000000000044,-0.0,-10.000000000000044,40.00000000000018,70.00000000000031,60.00000000000027
-0.0,-10.000000000000044,-0.0,-0.0,-0.0,-0.0,-10.000000000000044,-0.0,-20.00000000000009,30.000000000000135,60.00000000000027,50.00000000000022
-0.0,-0.0,-0.0,-0.0,-0.0,-0.0,-10.000000000000044,-0.0,-20.00000000000009,20.00000000000009,50.00000000000022,40.00000000000018
-0.0,-0.0,-0.0,-0.0,-0.0,-0.0,-10.000000000000044,-10.000000000000044,-30.000000000000135,10.000000000000044,40.00000000000018,30.000000000000135
-0.0,-0.0,-0.0,-0.0,-0.0,-0.0,-10.000000000000044,-20.00000000000009,-30.000000000000135,-0.0,30.000000000000135,20.00000000000009
-0.0,-0.0,10.000000000000044,-0.0,-0.0,10.000000000000044,-10.000000000000044,-30.000000000000135,-40.00000000000018,-0.0,20.00000000000009,10.000000000000044
-0.0,-0.0,20.00000000000009,-10.000000000000044,-10.000000000000044,10.000000000000044,-10.000000000000044,-40.00000000000018,-40.00000000000018,-10.000000000000044,10.000000000000044,-0.0
-0.0,10.000000000000044,20.00000000000009,-10.000000000000044,-10.000000000000044,20.00000000000009,-10.000000000000044,-50.00000000000022,-50.00000000000022,-20.00000000000009,-0.0,-0.0
-0.0,20.00000000000009,30.000000000000135,-20.00000000000009,-10.000000000000044,30.000000000000135,-10.000000000000044,-50.00000000000022,-50.00000000000022,-20.00000000000009,-0.0,-0.0
-0.0,40.00000000000018,40.00000000000018,-30.000000000000135,-10.000000000000044,40.00000000000018,-20.00000000000009,-60.00000000000027,-60.00000000000027,-30.000000000000135,-0.0,-0.0
10.000000000000044,50.00000000000022,50.00000000000022,-30.000000000000135,-20.00000000000009,50.00000000000022,-20.00000000000009,-70.00000000000031,-70.00000000000031,-40.00000000000018,-10.000000000000044,-0.0
10.000000000000044,60.00000000000027,50.00000000000022,-40.00000000000018,-20.00000000000009,60.00000000000027,-30.000000000000135,-80.00000000000036,-70.00000000000031,-40.00000000000018,-10.000000000000044,-10.000000000000044
10.000000000000044,70.00000000000031,70.00000000000031,-50.00000000000022,-20.00000000000009,70.00000000000031,-30.000000000000135,-80.00000000000036,-70.00000000000031,-50.00000000000022,-10.000000000000044,-10.000000000000044
10.000000000000044,80.00000000000036,80.00000000000036,-60.00000000000027,-30.000000000000135,90.0000000000004,-30.000000000000135,-80.00000000000036,-80.00000000000036,-50.00000000000022,-20.00000000000009,-10.000000000000044
20.00000000000009,100.00000000000044,90.0000000000004,-70.00000000000031,-30.000000000000135,100.00000000000044,-30.000000000000135,-90.0000000000004,-80.00000000000036,-50.00000000000022,-20.00000000000009,-20.00000000000009
20.00000000000009,110.00000000000048,90.0000000000004,-80.00000000000036,-30.000000000000135,100.00000000000044,-30.000000000000135,-90.0000000000004,-80.00000000000036,-50.00000000000022,-20.00000000000009,-20.00000000000009
30.000000000000135,120.00000000000054,90.0000000000004,-80.00000000000036,-30.000000000000135,110.00000000000048,-30.000000000000135,-90.0000000000004,-70.00000000000031,-50.00000000000022,-30.000000000000135,-20.00000000000009
30.000000000000135,130.00000000000057,90.0000000000004,-80.00000000000036,-20.00000000000009,110.00000000000048,-30.000000000000135,-90.0000000000004,-70.00000000000031,-50.00000000000022,-30.000000000000135,-20.00000000000009
30.000000000000135,130.00000000000057,90.0000000000004,-80.00000000000036,-20.00000000000009,110.00000000000048,-30.000000000000135,-80.00000000000036,-70.00000000000031,-50.00000000000022,-20.00000000000009,-20.00000000000009
30.000000000000135,130.00000000000057,80.00000000000036,-80.00000000000036,-20.00000000000009,100.00000000000044,-20.00000000000009,-80.00000000000036,-70.00000000000031,-40.00000000000018,-20.00000000000009,-20.00000000000009
30.000000000000135,120.00000000000054,80.00000000000036,-70.00000000000031,-20.00000000000009,90.0000000000004,-20.00000000000009,-80.00000000000036,-70.00000000000031,-40.00000000000018,-20.00000000000009,-10.000000000000044
20.00000000000009,110.00000000000048,70.00000000000031,-60.00000000000027,-20.00000000000009,80.00000000000036,-20.00000000000009,-80.00000000000036,-70.00000000000031,-40.00000000000018,-20.00000000000009,-10.000000000000044
10.000000000000044,90.0000000000004,60.00000000000027,-50.00000000000022,-20.00000000000009,70.00000000000031,-20.00000000000009,-80.00000000000036,-70.00000000000031,-30.000000000000135,-20.00000000000009,-10.000000000000044
-0.0,80.00000000000036,50.00000000000022,-40.00000000000018,-20.00000000000009,50.00000000000022,-20.00000000000009,-80.00000000000036,-70.00000000000031,-30.000000000000135,-10.000000000000044,-10.000000000000044
-0.0,60.00000000000027,30.000000000000135,-20.00000000000009,-10.000000000000044,30.000000000000135,-20.00000000000009,-80.00000000000036,-70.00000000000031,-10.000000000000044,-10.000000000000044,-10.000000000000044
-0.0,40.00000000000018,20.00000000000009,-10.000000000000044,-10.000000000000044,20.00000000000009,-20.00000000000009,-60.00000000000027,-50.00000000000022,30.000000000000135,-0.0,-0.0
-0.0,20.00000000000009,10.000000000000044,-0.0,-10.000000000000044,10.000000000000044,-10.000000000000044,-30.000000000000135,-20.00000000000009,100.00000000000044,20.00000000000009,10.000000000000044
-10.000000000000044,-0.0,-0.0,-0.0,-0.0,-0.0,-10.000000000000044,20.00000000000009,-0.0,220.00000000000097,70.00000000000031,40.00000000000018
-10.000000000000044,-0.0,-0.0,10.000000000000044,-0.0,-0.0,-10.000000000000044,90.0000000000004,20.00000000000009,370.00000000000165,150.00000000000065,100.00000000000044
-10.000000000000044,-10.000000000000044,-0.0,10.000000000000044,-0.0,-10.000000000000044,-30.000000000000135,180.0000000000008,30.000000000000135,560.0000000000025,260.00000000000114,170.00000000000077
-10.000000000000044,-20.00000000000009,-10.000000000000044,20.00000000000009,-0.0,-20.00000000000009,-70.00000000000031,280.00000000000125,-0.0,780.0000000000034,400.00000000000176,270.0000000000012
-10.000000000000044,-30.000000000000135,-20.00000000000009,20.00000000000009,-0.0,-20.00000000000009,-120.00000000000054,370.00000000000165,-60.00000000000027,1010.0000000000044,560.0000000000025,400.00000000000176
-10.000000000000044,-30.000000000000135,-20.00000000000009,20.00000000000009,-0.0,-30.000000000000135,-210.00000000000094,440.00000000000193,-160.0000000000007,1220.0000000000055,740.0000000000033,530.0000000000024
-10.000000000000044,-40.00000000000018,-30.000000000000135,30.000000000000135,-0.0,-40.00000000000018,-330.0000000000015,480.00000000000216,-290.0000000000013,1390.0000000000061,920.0000000000041,650.0000000000028
-10.000000000000044,-50.00000000000022,-30.000000000000135,30.000000000000135,-0.0,-40.00000000000018,-460.00000000000205,460.00000000000205,-430.00000000000193,1490.0000000000066,1060.0000000000048,740.0000000000033
-10.000000000000044,-50.00000000000022,-30.000000000000135,30.000000000000135,-0.0,-40.00000000000018,-590.0000000000026,400.00000000000176,-570.0000000000025,1480.0000000000066,1130.000000000005,790.0000000000035
-10.000000000000044,-50.00000000000022,-30.000000000000135,30.000000000000135,-0.0,-40.00000000000018,-710.0000000000032,300.0000000000013,-690.0000000000031,1370.0000000000061,1130.000000000005,780.0000000000034
-10.000000000000044,-50.00000000000022,-30.000000000000135,30.000000000000135,-0.0,-40.00000000000018,-790.0000000000035,170.00000000000077,-780.0000000000034,1180.0000000000052,1060.0000000000048,720.0000000000032
-10.000000000000044,-50.00000000000022,-30.000000000000135,30.000000000000135,-0.0,-40.00000000000018,-840.0000000000038,30.000000000000135,-820.0000000000036,950.0000000000042,930.0000000000041,620.0000000000027
-10.000000000000044,-50.00000000000022,-30.000000000000135,30.000000000000135,-0.0,-40.00000000000018,-840.0000000000038,-100.00000000000044,-820.0000000000036,700.0000000000031,760.0000000000034,500.0000000000022
-10.000000000000044,-50.00000000000022,-30.000000000000135,30.000000000000135,-0.0,-40.00000000000018,-800.0000000000035,-220.00000000000097,-770.0000000000034,470.0000000000021,580.0000000000026,380.0000000000017
-10.000000000000044,-50.00000000000022,-30.000000000000135,30.000000000000135,-0.0,-40.00000000000018,-740.0000000000033,-300.0000000000013,-690.0000000000031,280.00000000000125,410.0000000000018,260.00000000000114
-20.00000000000009,-50.00000000000022,-30.000000000000135,30.000000000000135,-0.0,-40.00000000000018,-640.0000000000028,-340.00000000000153,-590.0000000000026,130.00000000000057,260.00000000000114,160.0000000000007
-20.00000000000009,-50.00000000000022,-30.000000000000135,30.000000000000135,-0.0,-40.00000000000018,-530.0000000000024,-350.00000000000153,-480.00000000000216,20.00000000000009,140.00000000000063,80.00000000000036
-20.00000000000009,-50.00000000000022,-30.000000000000135,30.000000000000135,-0.0,-40.00000000000018,-420.0000000000019,-320.0000000000014,-370.00000000000165,-40.00000000000018,60.00000000000027,30.000000000000135
-20.00000000000009,-50.00000000000022,-30.000000000000135,30.000000000000135,-0.0,-40.00000000000018,-320.0000000000014,-270.0000000000012,-270.0000000000012,-70.00000000000031,10.000000000000044,-0.0
-10.000000000000044,-50.00000000000022,-30.000000000000135,30.000000000000135,-0.0,-40.00000000000018,-220.00000000000097,-220.00000000000097,-180.0000000000008,-70.00000000000031,-20.00000000000009,-20.00000000000009
-10.000000000000044,-50.00000000000022,-40.00000000000018,20.00000000000009,10.000000000000044,-50.00000000000022,-150.00000000000065,-170.00000000000077,-120.00000000000054,-70.00000000000031,-20.00000000000009,-20.00000000000009
-0.0,-50.00000000000022,-50.00000000000022,10.000000000000044,20.00000000000009,-50.00000000000022,-90.0000000000004,-130.00000000000057,-70.00000000000031,-50.00000000000022,-20.00000000000009,-20.00000000000009
30.000000000000135,-50.00000000000022,-60.00000000000027,-10.000000000000044,40.00000000000018,-40.00000000000018,-40.00000000000018,-90.0000000000004,-30.000000000000135,-50.00000000000022,-20.00000000000009,-20.00000000000009
60.00000000000027,-20.00000000000009,-60.00000000000027,-40.00000000000018,60.00000000000027,-30.000000000000135,-10.000000000000044,-60.00000000000027,-10.000000000000044,-60.00000000000027,-20.00000000000009,-30.000000000000135
100.00000000000044,-0.0,-60.00000000000027,-80.00000000000036,80.00000000000036,-0.0,-0.0,-40.00000000000018,-0.0,-60.00000000000027,-30.000000000000135,-30.000000000000135
150.00000000000065,40.00000000000018,-40.00000000000018,-130.00000000000057,90.0000000000004,30.000000000000135,20.00000000000009,-30.000000000000135,10.000000000000044,-70.00000000000031,-40.00000000000018,-40.00000000000018
190.00000000000085,100.00000000000044,-20.00000000000009,-180.0000000000008,100.00000000000044,70.00000000000031,30.000000000000135,-30.000000000000135,10.000000000000044,-80.00000000000036,-50.00000000000022,-50.00000000000022
220.00000000000097,160.0000000000007,-0.0,-220.00000000000097,110.00000000000048,100.00000000000044,40.00000000000018,-20.00000000000009,20.00000000000009,-80.00000000000036,-50.00000000000022,-50.00000000000022
240.00000000000108,210.00000000000094,-0.0,-240.00000000000108,110.00000000000048,120.00000000000054,40.00000000000018,-20.00000000000009,30.000000000000135,-80.00000000000036,-50.00000000000022,-50.00000000000022
240.00000000000108,240.00000000000108,-0.0,-240.00000000000108,110.00000000000048,120.00000000000054,50.00000000000022,-20.00000000000009,30.000000000000135,-70.00000000000031,-50.00000000000022,-50.00000000000022
220.00000000000097,240.00000000000108,-0.0,-220.00000000000097,100.00000000000044,100.00000000000044,50.00000000000022,-10.000000000000044,40.00000000000018,-80.00000000000036,-50.00000000000022,-50.00000000000022
180.0000000000008,210.00000000000094,-0.0,-180.0000000000008,90.0000000000004,80.00000000000036,50.00000000000022,-0.0,50.00000000000022,-80.00000000000036,-60.00000000000027,-50.00000000000022
130.00000000000057,170.00000000000077,-10.000000000000044,-130.00000000000057,70.00000000000031,50.00000000000022,60.00000000000027,-0.0,50.00000000000022,-80.00000000000036,-60.00000000000027,-60.00000000000027
90.0000000000004,120.00000000000054,-10.000000000000044,-80.00000000000036,50.00000000000022,20.00000000000009,60.00000000000027,-0.0,60.00000000000027,-70.00000000000031,-60.00000000000027,-60.00000000000027
40.00000000000018,70.00000000000031,-0.0,-40.00000000000018,20.00000000000009,10.000000000000044,60.00000000000027,-0.0,70.00000000000031,-70.00000000000031,-50.00000000000022,-50.00000000000022
-0.0,30.000000000000135,-0.0,-10.000000000000044,-0.0,-0.0,70.00000000000031,-0.0,70.00000000000031,-70.00000000000031,-50.00000000000022,-50.00000000000022
-20.00000000000009,-0.0,-0.0,10.000000000000044,-10.000000000000044,-0.0,70.00000000000031,10.000000000000044,80.00000000000036,-70.00000000000031,-50.00000000000022,-50.00000000000022
-40.00000000000018,-10.000000000000044,10.000000000000044,30.000000000000135,-20.00000000000009,-10.000000000000044,80.00000000000036,20.00000000000009,90.0000000000004,-60.00000000000027,-50.00000000000022,-50.00000000000022
-50.00000000000022,-30.000000000000135,10.000000000000044,40.00000000000018,-30.000000000000135,-10.000000000000044,80.00000000000036,30.000000000000135,100.00000000000044,-60.00000000000027,-50.00000000000022,-50.00000000000022
-50.00000000000022,-40.00000000000018,-0.0,40.00000000000018,-30.000000000000135,-10.000000000000044,90.0000000000004,30.000000000000135,110.00000000000048,-60.00000000000027,-40.00000000000018,-50.00000000000022
-50.00000000000022,-40.00000000000018,-0.0,40.00000000000018,-20.00000000000009,-10.000000000000044,90.0000000000004,50.00000000000022,120.00000000000054,-50.00000000000022,-40.00000000000018,-40.00000000000018
-40.00000000000018,-40.00000000000018,-0.0,30.000000000000135,-10.000000000000044,-20.00000000000009,100.00000000000044,60.00000000000027,130.00000000000057,-50.00000000000022,-40.00000000000018,-40.00000000000018
-20.00000000000009,-40.00000000000018,-10.000000000000044,30.000000000000135,-0.0,-30.000000000000135,100.00000000000044,70.00000000000031,140.00000000000063,-50.00000000000022,-40.00000000000018,-40.00000000000018
-10.000000000000044,-40.00000000000018,-30.000000000000135,30.000000000000135,-0.0,-30.000000000000135,100.00000000000044,80.00000000000036,160.0000000000007,-40.00000000000018,-30.000000000000135,-40.00000000000018
-10.000000000000044,-40.00000000000018,-40.00000000000018,20.00000000000009,-0.0,-40.00000000000018,110.00000000000048,90.0000000000004,170.00000000000077,-40.00000000000018,-30.000000000000135,-40.00000000000018
-0.0,-50.00000000000022,-40.00000000000018,20.00000000000009,10.000000000000044,-40.00000000000018,120.00000000000054,110.00000000000048,190.00000000000085,-30.000000000000135,-30.000000000000135,-40.00000000000018
-0.0,-50.00000000000022,-50.00000000000022,20.00000000000009,20.00000000000009,-50.00000000000022,120.00000000000054,130.00000000000057,210.00000000000094,-20.00000000000009,-20.00000000000009,-30.000000000000135
-0.0,-50.00000000000022,-50.00000000000022,20.00000000000009,20.00000000000009,-50.00000000000022,130.00000000000057,140.00000000000063,240.00000000000108,-10.000000000000044,-20.00000000000009,-30.000000000000135
-0.0,-50.00000000000022,-50.00000000000022,20.00000000000009,20.00000000000009,-50.00000000000022,140.00000000000063,170.00000000000077,260.00000000000114,-0.0,-10.000000000000044,-20.00000000000009
-0.0,-50.00000000000022,-50.00000000000022,20.00000000000009,20.00000000000009,-50.00000000000022,150.00000000000065,190.00000000000085,290.0000000000013,-0.0,-0.0,-20.00000000000009
-0.0,-50.00000000000022,-50.00000000000022,20.00000000000009,20.00000000000009,-50.00000000000022,160.0000000000007,210.00000000000094,310.00000000000136,10.000000000000044,-0.0,-10.000000000000044
-0.0,-50.00000000000022,-50.00000000000022,20.00000000000009,20.00000000000009,-50.00000000000022,170.00000000000077,240.00000000000108,330.0000000000015,20.00000000000009,-0.0,-0.0
-0.0,-50.00000000000022,-50.00000000000022,30.000000000000135,20.00000000000009,-50.00000000000022,180.0000000000008,260.00000000000114,360.0000000000016,30.000000000000135,10.000000000000044,-0.0
-0.0,-50.00000000000022,-50.00000000000022,30.000000000000135,20.00000000000009,-50.00000000000022,190.00000000000085,280.00000000000125,380.0000000000017,40.00000000000018,20.00000000000009,10.000000000000044
-0.0,-50.00000000000022,-50.00000000000022,30.000000000000135,20.00000000000009,-50.00000000000022,200.00000000000088,300.0000000000013,400.00000000000176,50.00000000000022,30.000000000000135,20.00000000000009
-0.0,-50.00000000000022,-50.00000000000022,20.00000000000009,10.000000000000044,-50.00000000000022,210.00000000000094,320.0000000000014,410.0000000000018,60.00000000000027,40.00000000000018,20.00000000000009
-0.0,-50.00000000000022,-40.00000000000018,30.000000000000135,10.000000000000044,-50.00000000000022,210.00000000000094,340.00000000000153,430.00000000000193,70.00000000000031,50.00000000000022,30.000000000000135
-10.000000000000044,-50.00000000000022,-40.00000000000018,30.000000000000135,10.000000000000044,-50.00000000000022,220.00000000000097,350.00000000000153,440.00000000000193,80.00000000000036,60.00000000000027,40.00000000000018
-10.000000000000044,-50.00000000000022,-40.00000000000018,30.000000000000135,10.000000000000044,-40.00000000000018,220.00000000000097,360.0000000000016,440.00000000000193,80.00000000000036,70.00000000000031,50.00000000000022
-10.000000000000044,-50.00000000000022,-40.00000000000018,20.00000000000009,10.000000000000044,-40.00000000000018,220.00000000000097,370.00000000000165,450.000000000002,80.00000000000036,70.00000000000031,60.00000000000027
-0.0,-50.00000000000022,-40.00000000000018,20.00000000000009,10.000000000000044,-40.00000000000018,220.00000000000097,380.0000000000017,450.000000000002,80.00000000000036,80.00000000000036,60.00000000000027
-0.0,-50.00000000000022,-40.00000000000018,20.00000000000009,10.000000000000044,-40.00000000000018,220.00000000000097,380.0000000000017,440.00000000000193,80.00000000000036,80.00000000000036,70.00000000000031
-0.0,-40.00000000000018,-40.00000000000018,20.00000000000009,10.000000000000044,-40.00000000000018,220.00000000000097,370.00000000000165,430.00000000000193,70.00000000000031,90.0000000000004,80.00000000000036
-0.0,-40.00000000000018,-30.000000000000135,10.000000000000044,10.000000000000044,-30.000000000000135,210.00000000000094,360.0000000000016,420.0000000000019,60.00000000000027,90.0000000000004,80.00000000000036
-0.0,-30.000000000000135,-30.000000000000135,10.000000000000044,10.000000000000044,-30.000000000000135,200.00000000000088,350.00000000000153,400.00000000000176,60.00000000000027,90.0000000000004,80.00000000000036
-0.0,-30.000000000000135,-30.000000000000135,10.000000000000044,10.000000000000044,-30.000000000000135,200.00000000000088,330.0000000000015,380.0000000000017,50.00000000000022,90.0000000000004,90.0000000000004
-0.0,-30.000000000000135,-30.000000000000135,-0.0,10.000000000000044,-20.00000000000009,190.00000000000085,310.00000000000136,360.0000000000016,40.00000000000018,80.00000000000036,80.00000000000036
-0.0,-20.00000000000009,-30.000000000000135,-0.0,10.000000000000044,-20.00000000000009,180.0000000000008,290.0000000000013,330.0000000000015,30.000000000000135,80.00000000000036,80.00000000000036
10.000000000000044,-10.000000000000044,-30.000000000000135,-0.0,20.00000000000009,-10.000000000000044,160.0000000000007,260.00000000000114,310.00000000000136,30.000000000000135,70.00000000000031,80.00000000000036
20.00000000000009,-10.000000000000044,-30.000000000000135,-10.000000000000044,20.00000000000009,-10.000000000000044,150.00000000000065,240.00000000000108,280.00000000000125,20.00000000000009,70.00000000000031,70.00000000000031
30.000000000000135,-0.0,-30.000000000000135,-20.00000000000009,30.000000000000135,-10.000000000000044,140.00000000000063,210.00000000000094,240.00000000000108,10.000000000000044,60.00000000000027,60.00000000000027
40.00000000000018,-0.0,-30.000000000000135,-30.000000000000135,30.000000000000135,-10.000000000000044,120.00000000000054,190.00000000000085,210.00000000000094,-0.0,50.00000000000022,50.00000000000022
50.00000000000022,-0.0,-20.00000000000009,-40.00000000000018,30.000000000000135,-0.0,110.00000000000048,160.0000000000007,180.0000000000008,-0.0,40.00000000000018,40.00000000000018
50.00000000000022,20.00000000000009,-20.00000000000009,-50.00000000000022,30.000000000000135,-0.0,100.00000000000044,130.00000000000057,150.00000000000065,-0.0,40.00000000000018,30.000000000000135
60.00000000000027,30.000000000000135,-10.000000000000044,-60.00000000000027,40.00000000000018,10.000000000000044,80.00000000000036,110.00000000000048,120.00000000000054,-0.0,30.000000000000135,20.00000000000009
70.00000000000031,40.00000000000018,-10.000000000000044,-70.00000000000031,40.00000000000018,20.00000000000009,70.00000000000031,80.00000000000036,100.00000000000044,-0.0,20.00000000000009,20.00000000000009
70.00000000000031,60.00000000000027,-0.0,-70.00000000000031,40.00000000000018,30.000000000000135,60.00000000000027,60.00000000000027,80.00000000000036,-0.0,10.000000000000044,10.000000000000044
80.00000000000036,70.00000000000031,-0.0,-80.00000000000036,30.000000000000135,40.00000000000018,50.00000000000022,40.00000000000018,60.00000000000027,-10.000000000000044,10.000000000000044,-0.0
80.00000000000036,80.00000000000036,-0.0,-90.0000000000004,30.000000000000135,50.00000000000022,40.00000000000018,30.000000000000135,40.00000000000018,-10.000000000000044,-0.0,-0.0
90.0000000000004,90.0000000000004,10.000000000000044,-100.00000000000044,30.000000000000135,50.00000000000022,30.000000000000135,10.000000000000044,30.000000000000135,-10.000000000000044,-0.0,-0.0
90.0000000000004,100.00000000000044,10.000000000000044,-100.00000000000044,30.000000000000135,60.00000000000027,20.00000000000009,-0.0,20.00000000000009,-10.000000000000044,-0.0,-0.0
100.00000000000044,110.00000000000048,20.00000000000009,-110.00000000000048,30.000000000000135,70.00000000000031,20.00000000000009,-0.0,10.000000000000044,-10.000000000000044,-0.0,-10.000000000000044
100.00000000000044,120.00000000000054,20.00000000000009,-110.00000000000048,30.000000000000135,70.00000000000031,10.000000000000044,-0.0,-0.0,-20.00000000000009,-0.0,-10.000000000000044
100.00000000000044,120.00000000000054,30.000000000000135,-110.00000000000048,30.000000000000135,80.00000000000036,10.000000000000044,-0.0,-0.0,-20.00000000000009,-0.0,-10.000000000000044
90.0000000000004,130.00000000000057,30.000000000000135,-110.00000000000048,20.00000000000009,80.00000000000036,10.000000000000044,-10.000000000000044,-0.0,-10.000000000000044,-0.0,-10.000000000000044
90.0000000000004,130.00000000000057,40.00000000000018,-110.00000000000048,20.00000000000009,90.0000000000004,-0.0,-10.000000000000044,-0.0,-10.000000000000044,-0.0,-10.000000000000044
80.00000000000036,130.00000000000057,40.00000000000018,-110.00000000000048,10.000000000000044,90.0000000000004,-0.0,-10.000000000000044,-0.0,-10.000000000000044,-0.0,-20.00000000000009
80.00000000000036,130.00000000000057,50.00000000000022,-100.00000000000044,10.000000000000044,90.0000000000004,-0.0,-10.000000000000044,-0.0,-10.000000000000044,-0.0,-10.000000000000044
70.00000000000031,130.00000000000057,50.00000000000022,-100.00000000000044,10.000000000000044,90.0000000000004,-0.0,-10.000000000000044,-0.0,-10.000000000000044,-0.0,-10.000000000000044
70.00000000000031,120.00000000000054,40.00000000000018,-100.00000000000044,-0.0,80.00000000000036,-0.0,-10.000000000000044,-0.0,-10.000000000000044,-0.0,-10.000000000000044
60.00000000000027,120.00000000000054,40.00000000000018,-90.0000000000004,-0.0,80.00000000000036,-0.0,-10.000000000000044,-0.0,-10.000000000000044,-0.0,-10.000000000000044
50.00000000000022,110.00000000000048,40.00000000000018,-80.00000000000036,-0.0,70.00000000000031,-0.0,-10.000000000000044,-0.0,-0.0,-0.0,-10.000000000000044
40.00000000000018,100.00000000000044,40.00000000000018,-70.00000000000031,-0.0,60.00000000000027,-0.0,-10.000000000000044,-0.0,-0.0,-0.0,-10.000000000000044
30.000000000000135,90.0000000000004,30.000000000000135,-60.00000000000027,-0.0,50.00000000000022,-0.0,-0.0,-0.0,-0.0,-0.0,-10.000000000000044
30.000000000000135,70.00000000000031,30.000000000000135,-50.00000000000022,-0.0,40.00000000000018,-0.0,-0.0,-0.0,-0.0,-0.0,-10.000000000000044
20.00000000000009,60.00000000000027,20.00000000000009,-40.00000000000018,-0.0,30.000000000000135,-0.0,-0.0,-0.0,-0.0,-0.0,-10.000000000000044
20.00000000000009,50.00000000000022,10.000000000000044,-30.000000000000135,-0.0,20.00000000000009,-0.0,-0.0,-0.0,-0.0,-0.0,-10.000000000000044
10.000000000000044,30.000000000000135,10.000000000000044,-20.00000000000009,-0.0,20.00000000000009,-0.0,-0.0,-0.0,-0.0,-0.0,-10.000000000000044
10.000000000000044,30.000000000000135,-0.0,-20.00000000000009,-0.0,10.000000000000044,-0.0,-0.0,-0.0,-0.0,-0.0,-10.000000000000044
10.000000000000044,20.00000000000009,-0.0,-10.000000000000044,-0.0,-0.0,-0.0,-0.0,-0.0,-0.0,-0.0,-10.000000000000044
-0.0,10.000000000000044,-0.0,-0.0,-0.0,-0.0,-0.0,-0.0,-0.0,-0.0,-0.0,-10.000000000000044
-0.0,-0.0,-0.0,-0.0,-0.0,-0.0,-0.0,-0.0,-0.0,-0.0,-0.0,-10.000000000000044
-0.0,-0.0,-0.0,-0.0,-0.0,-0.0,-0.0,-0.0,-0.0,-0.0,-0.0,-10.000000000000044
-0.0,-0.0,-0.0,-0.0,-0.0,-0.0,-0.0,-0.0,-0.0,-0.0,-0.0,-10.000000000000044
-0.0,-0.0,-0.0,-0.0,-0.0,-0.0,-0.0,-0.0,-0.0,-0.0,-0.0,-10.000000000000044
-0.0,-10.000000000000044,-0.0,-0.0,-0.0,-10.000000000000044,-0.0,-0.0,-0.0,-0.0,-0.0,-10.000000000000044
-0.0,-10.000000000000044,-0.0,10.000000000000044,-0.0,-10.000000000000044,-0.0,-0.0,-0.0,-0.0,-0.0,-10.000000000000044
-0.0,-10.000000000000044,-0.0,10.000000000000044,-0.0,-10.000000000000044,-0.0,-0.0,-0.0,-0.0,-0.0,-0.0
-0.0,-10.000000000000044,-0.0,10.000000000000044,-0.0,-10.000000000000044,-0.0,-0.0,-0.0,-0.0,-0.0,-0.0
-0.0,-10.000000000000044,-10.000000000000044,-0.0,-0.0,-10.000000000000044,-0.0,-0.0,-0.0,-0.0,-0.0,-0.0
-0.0,-10.000000000000044,-10.000000000000044,-0.0,-0.0,-10.000000000000044,-0.0,-0.0,-0.0,-0.0,-0.0,-0.0
-0.0,-10.000000000000044,-10.000000000000044,-0.0,-0.0,-10.000000000000044,-0.0,-0.0,-0.0,-0.0,-0.0,-0.0
-0.0,-10.000000000000044,-10.000000000000044,-0.0,-0.0,-10.000000000000044,-0.0,-0.0,-0.0,-0.0,-0.0,-0.0
-0.0,-10.000000000000044,-10.000000000000044,-0.0,-0.0,-10.000000000000044,-0.0,-0.0,-0.0,-0.0,-0.0,-0.0
-0.0,-10.000000000000044,-10.000000000000044,-0.0,-0.0,-10.000000000000044,-0.0,-0.0,-0.0,-0.0,-0.0,-0.0
-0.0,-10.000000000000044,-10.000000000000044,-0.0,-0.0,-10.000000000000044,-0.0,-0.0,-0.0,-0.0,-0.0,-0.0
-0.0,-10.000000000000044,-10.000000000000044,-0.0,-0.0,-10.000000000000044,-0.0,-0.0,-0.0,-0.0,-0.0,-0.0
-0.0,-10.000000000000044,-0.0,-0.0,-0.0,-0.0,-0.0,-0.0,-0.0,-0.0,-0.0,-0.0
-0.0,-10.000000000000044,-10.000000000000044,-0.0,-0.0,-10.000000000000044,-0.0,-0.0,-0.0,-0.0,-0.0,-0.0
-0.0,-10.000000000000044,-0.0,-0.0,-0.0,-0.0,-0.0,-0.0,-0.0,-0.0,-0.0,-0.0
-0.0,-0.0,-0.0,-0.0,-0.0,-0.0,-0.0,-10.000000000000044,-0.0,-0.0,-0.0,-0.0
-0.0,-0.0,-0.0,-0.0,-0.0,-0.0,-0.0,-10.000000000000044,-0.0,-0.0,-0.0,-0.0
-0.0,-0.0,-0.0,-0.0,-0.0,-0.0,-0.0,-10.000000000000044,-0.0,-0.0,-0.0,-0.0
-0.0,-0.0,-0.0,-0.0,-0.0,-0.0,-0.0,-10.000000000000044,-0.0,-0.0,-0.0,-0.0
-0.0,-0.0,-0.0,-0.0,-0.0,-0.0,-0.0,-10.000000000000044,-0.0,-0.0,-0.0,-0.0
-0.0,-0.0,-0.0,-0.0,-0.0,-0.0,-0.0,-10.000000000000044,-0.0,-0.0,-0.0,-0.0
-0.0,-0.0,-0.0,-0.0,-0.0,-0.0,-0.0,-10.000000000000044,-0.0,-0.0,-0.0,-0.0
-0.0,-0.0,-0.0,-0.0,-0.0,-0.0,-0.0,-10.000000000000044,-10.000000000000044,-0.0,-10.000000000000044,-0.0
-0.0,-0.0,-0.0,-0.0,-0.0,-0.0,-0.0,-10.000000000000044,-10.000000000000044,-0.0,-0.0,-0.0
-0.0,-0.0,-0.0,-0.0,-0.0,-0.0,-0.0,-10.000000000000044,-10.000000000000044,-0.0,-0.0,-0.0
-0.0,-0.0,-0.0,-0.0,-0.0,-0.0,-0.0,-10.000000000000044,-10.000000000000044,-0.0,-0.0,-0.0
-0.0,-0.0,-0.0,-0.0,-0.0,-0.0,-0.0,-10.000000000000044,-0.0,-0.0,-0.0,-0.0
-0.0,-0.0,-0.0,-0.0,-0.0,-0.0,-0.0,-10.000000000000044,-0.0,-0.0,-0.0,-0.0
-0.0,-0.0,-0.0,-0.0,-0.0,-0.0,-0.0,-0.0,-0.0,-0.0,-0.0,10.000000000000044
-10.000000000000044,-0.0,10.000000000000044,-0.0,-10.000000000000044,-0.0,-0.0,-0.0,-0.0,10.000000000000044,-0.0,10.000000000000044
-10.000000000000044,-0.0,-0.0,-0.0,-0.0,-0.0,-0.0,-0.0,-0.0,10.000000000000044,-0.0,10.000000000000044
-0.0,-0.0,-0.0,-0.0,-0.0,-0.0,-0.0,-0.0,-0.0,10.000000000000044,-0.0,20.00000000000009
-0.0,-0.0,-0.0,-0.0,-0.0,-0.0,-0.0,-0.0,-0.0,20.00000000000009,10.000000000000044,20.00000000000009
-0.0,-0.0,-0.0,-0.0,-0.0,-0.0,-0.0,-0.0,-0.0,30.000000000000135,10.000000000000044,30.000000000000135
-0.0,-0.0,-0.0,-0.0,-0.0,-0.0,-0.0,10.000000000000044,-0.0,30.000000000000135,10.000000000000044,30.000000000000135
-0.0,-0.0,-0.0,-0.0,-0.0,-0.0,-0.0,10.000000000000044,-0.0,40.00000000000018,20.00000000000009,40.00000000000018
-0.0,-0.0,-0.0,-0.0,-0.0,-0.0,-0.0,20.00000000000009,-0.0,50.00000000000022,30.000000000000135,50.00000000000022
-0.0,-0.0,-0.0,-0.0,-0.0,-0.0,-0.0,20.00000000000009,-0.0,50.00000000000022,40.00000000000018,60.00000000000027
-0.0,-0.0,-0.0,-0.0,-0.0,-0.0,-10.000000000000044,20.00000000000009,-0.0,60.00000000000027,40.00000000000018,70.00000000000031
-0.0,-0.0,-0.0,-0.0,-0.0,-0.0,-20.00000000000009,20.00000000000009,-0.0,60.00000000000027,50.00000000000022,70.00000000000031
-0.0,-0.0,-0.0,-0.0,-0.0,-0.0,-20.00000000000009,10.000000000000044,-0.0,50.00000000000022,50.00000000000022,70.00000000000031
-0.0,-0.0,-0.0,-0.0,-0.0,-0.0,-30.000000000000135,10.000000000000044,-10.000000000000044,50.00000000000022,40.00000000000018,70.00000000000031
-0.0,-0.0,-0.0,-0.0,-0.0,-0.0,-30.000000000000135,-0.0,-10.000000000000044,40.00000000000018,40.00000000000018,60.00000000000027
-0.0,-0.0,-0.0,-0.0,-0.0,-0.0,-30.000000000000135,-0.0,-20.00000000000009,30.000000000000135,30.000000000000135,50.00000000000022
-0.0,-0.0,-0.0,-0.0,-0.0,-0.0,-30.000000000000135,-0.0,-20.00000000000009,10.000000000000044,20.00000000000009,40.00000000000018
-0.0,-0.0,-0.0,-0.0,-0.0,-0.0,-30.000000000000135,-10.000000000000044,-30.000000000000135,-0.0,-0.0,30.000000000000135
-0.0,-0.0,-0.0,-0.0,-0.0,-0.0,-30.000000000000135,-20.00000000000009,-40.00000000000018,-0.0,-0.0,20.00000000000009
-0.0,-0.0,-0.0,-0.0,-0.0,-0.0,-30.000000000000135,-30.000000000000135,-40.00000000000018,-0.0,-0.0,10.000000000000044
-0.0,-0.0,-0.0,-0.0,-0.0,-0.0,-30.000000000000135,-40.00000000000018,-50.00000000000022,-10.000000000000044,-10.000000000000044,10.000000000000044
-0.0,-0.0,10.000000000000044,-10.000000000000044,-0.0,10.000000000000044,-30.000000000000135,-50.00000000000022,-50.00000000000022,-20.00000000000009,-20.00000000000009,-0.0
-0.0,10.000000000000044,20.00000000000009,-10.000000000000044,-0.0,20.00000000000009,-40.00000000000018,-60.00000000000027,-60.00000000000027,-30.000000000000135,-30.000000000000135,-0.0
-0.0,20.00000000000009,30.000000000000135,-20.00000000000009,-0.0,30.000000000000135,-40.00000000000018,-70.00000000000031,-60.00000000000027,-30.000000000000135,-30.000000000000135,-0.0
10.000000000000044,40.00000000000018,30.000000000000135,-30.000000000000135,-10.000000000000044,40.00000000000018,-40.00000000000018,-70.00000000000031,-70.00000000000031,-40.00000000000018,-40.00000000000018,-0.0
10.000000000000044,50.00000000000022,40.00000000000018,-40.00000000000018,-10.000000000000044,50.00000000000022,-50.00000000000022,-80.00000000000036,-70.00000000000031,-40.00000000000018,-40.00000000000018,-10.000000000000044
10.000000000000044,60.00000000000027,50.00000000000022,-40.00000000000018,-10.000000000000044,60.00000000000027,-50.00000000000022,-80.00000000000036,-70.00000000000031,-40.00000000000018,-50.00000000000022,-10.000000000000044
10.000000000000044,70.00000000000031,60.00000000000027,-50.00000000000022,-20.00000000000009,70.00000000000031,-50.00000000000022,-80.00000000000036,-70.00000000000031,-40.00000000000018,-50.00000000000022,-10.000000000000044
10.000000000000044,80.00000000000036,70.00000000000031,-60.00000000000027,-30.000000000000135,80.00000000000036,-50.00000000000022,-80.00000000000036,-70.00000000000031,-40.00000000000018,-50.00000000000022,-10.000000000000044
20.00000000000009,90.0000000000004,80.00000000000036,-60.00000000000027,-30.000000000000135,90.0000000000004,-50.00000000000022,-80.00000000000036,-70.00000000000031,-30.000000000000135,-50.00000000000022,-10.000000000000044
20.00000000000009,100.00000000000044,90.0000000000004,-70.00000000000031,-30.000000000000135,100.00000000000044,-40.00000000000018,-80.00000000000036,-60.00000000000027,-30.000000000000135,-50.00000000000022,-10.000000000000044
20.00000000000009,110.00000000000048,100.00000000000044,-70.00000000000031,-30.000000000000135,110.00000000000048,-40.00000000000018,-80.00000000000036,-60.00000000000027,-30.000000000000135,-50.00000000000022,-0.0
20.00000000000009,120.00000000000054,100.00000000000044,-80.00000000000036,-30.000000000000135,110.00000000000048,-30.000000000000135,-70.00000000000031,-60.00000000000027,-20.00000000000009,-40.00000000000018,-0.0
30.000000000000135,130.00000000000057,100.00000000000044,-80.00000000000036,-30.000000000000135,110.00000000000048,-30.000000000000135,-70.00000000000031,-60.00000000000027,-20.00000000000009,-40.00000000000018,-0.0
30.000000000000135,130.00000000000057,100.00000000000044,-80.00000000000036,-30.000000000000135,110.00000000000048,-30.000000000000135,-70.00000000000031,-60.00000000000027,-20.00000000000009,-40.00000000000018,-0.0
30.000000000000135,130.00000000000057,90.0000000000004,-80.00000000000036,-20.00000000000009,110.00000000000048,-30.000000000000135,-70.00000000000031,-60.00000000000027,-20.00000000000009,-40.00000000000018,-0.0
30.000000000000135,130.00000000000057,80.00000000000036,-80.00000000000036,-20.00000000000009,100.00000000000044,-40.00000000000018,-80.00000000000036,-70.00000000000031,-20.00000000000009,-40.00000000000018,-0.0
20.00000000000009,110.00000000000048,70.00000000000031,-70.00000000000031,-20.00000000000009,80.00000000000036,-40.00000000000018,-80.00000000000036,-70.00000000000031,-10.000000000000044,-50.00000000000022,-0.0
20.00000000000009,100.00000000000044,50.00000000000022,-50.00000000000022,-10.000000000000044,60.00000000000027,-40.00000000000018,-70.00000000000031,-60.00000000000027,10.000000000000044,-40.00000000000018,-0.0
10.000000000000044,80.00000000000036,40.00000000000018,-40.00000000000018,-10.000000000000044,50.00000000000022,-40.00000000000018,-50.00000000000022,-30.000000000000135,50.00000000000022,-20.00000000000009,-0.0
-0.0,60.00000000000027,30.000000000000135,-30.000000000000135,-10.000000000000044,30.000000000000135,-30.000000000000135,-20.00000000000009,-10.000000000000044,130.00000000000057,10.000000000000044,20.00000000000009
-0.0,40.00000000000018,20.00000000000009,-10.000000000000044,-10.000000000000044,20.00000000000009,-30.000000000000135,40.00000000000018,10.000000000000044,260.00000000000114,60.00000000000027,60.00000000000027
-0.0,20.00000000000009,10.000000000000044,-0.0,-0.0,-0.0,-20.00000000000009,120.00000000000054,30.000000000000135,420.0000000000019,140.00000000000063,120.00000000000054
-0.0,-0.0,-0.0,-0.0,-0.0,-0.0,-30.000000000000135,210.00000000000094,30.000000000000135,620.0000000000027,260.00000000000114,200.00000000000088
-0.0,-0.0,-0.0,-0.0,-0.0,-0.0,-70.00000000000031,310.00000000000136,-0.0,840.0000000000038,400.00000000000176,300.0000000000013
-0.0,-0.0,-10.000000000000044,10.000000000000044,-0.0,-10.000000000000044,-130.00000000000057,400.00000000000176,-60.00000000000027,1070.0000000000048,570.0000000000025,430.00000000000193
-10.000000000000044,-10.000000000000044,-10.000000000000044,10.000000000000044,-0.0,-10.000000000000044,-220.00000000000097,450.000000000002,-160.0000000000007,1280.0000000000057,750.0000000000033,550.0000000000024
-10.000000000000044,-20.00000000000009,-10.000000000000044,10.000000000000044,-0.0,-20.00000000000009,-340.00000000000153,470.0000000000021,-300.0000000000013,1430.0000000000064,920.0000000000041,670.000000000003
-10.000000000000044,-30.000000000000135,-10.000000000000044,20.00000000000009,-0.0,-20.00000000000009,-480.00000000000216,440.00000000000193,-440.00000000000193,1510.0000000000066,1040.0000000000045,750.0000000000033
-10.000000000000044,-30.000000000000135,-20.00000000000009,20.00000000000009,-0.0,-30.000000000000135,-610.0000000000027,360.0000000000016,-580.0000000000026,1470.0000000000066,1110.000000000005,790.0000000000035
-20.00000000000009,-40.00000000000018,-10.000000000000044,30.000000000000135,-0.0,-20.00000000000009,-720.0000000000032,250.0000000000011,-700.0000000000031,1340.000000000006,1090.0000000000048,770.0000000000034
-20.00000000000009,-40.00000000000018,-10.000000000000044,30.000000000000135,-0.0,-30.000000000000135,-800.0000000000035,120.00000000000054,-780.0000000000034,1140.000000000005,1000.0000000000044,700.0000000000031
-30.000000000000135,-40.00000000000018,-10.000000000000044,30.000000000000135,-0.0,-30.000000000000135,-840.0000000000038,-20.00000000000009,-820.0000000000036,900.000000000004,860.0000000000039,590.0000000000026
-20.00000000000009,-40.00000000000018,-20.00000000000009,30.000000000000135,-0.0,-30.000000000000135,-830.0000000000036,-150.00000000000065,-810.0000000000036,660.000000000003,690.0000000000031,470.0000000000021
-20.00000000000009,-50.00000000000022,-20.00000000000009,30.000000000000135,-0.0,-30.000000000000135,-790.0000000000035,-250.0000000000011,-750.0000000000033,440.00000000000193,510.0000000000023,350.00000000000153
-20.00000000000009,-50.00000000000022,-20.00000000000009,30.000000000000135,-0.0,-40.00000000000018,-730.0000000000033,-330.0000000000015,-670.000000000003,250.0000000000011,350.00000000000153,240.00000000000108
-20.00000000000009,-50.00000000000022,-30.000000000000135,30.000000000000135,-0.0,-40.00000000000018,-640.0000000000028,-360.0000000000016,-570.0000000000025,110.00000000000048,210.00000000000094,150.00000000000065
-10.000000000000044,-50.00000000000022,-30.000000000000135,30.000000000000135,-0.0,-40.00000000000018,-530.0000000000024,-350.00000000000153,-460.00000000000205,20.00000000000009,90.0000000000004,70.00000000000031
-10.000000000000044,-50.00000000000022,-30.000000000000135,30.000000000000135,-0.0,-40.00000000000018,-430.00000000000193,-320.0000000000014,-360.0000000000016,-40.00000000000018,10.000000000000044,20.00000000000009
-10.000000000000044,-50.00000000000022,-30.000000000000135,30.000000000000135,-0.0,-40.00000000000018,-330.0000000000015,-270.0000000000012,-260.00000000000114,-70.00000000000031,-30.000000000000135,-0.0
-10.000000000000044,-50.00000000000022,-30.000000000000135,30.000000000000135,-0.0,-40.00000000000018,-240.00000000000108,-220.00000000000097,-180.0000000000008,-70.00000000000031,-60.00000000000027,-10.000000000000044
-10.000000000000044,-50.00000000000022,-30.000000000000135,20.00000000000009,-0.0,-40.00000000000018,-170.00000000000077,-170.00000000000077,-120.00000000000054,-70.00000000000031,-60.00000000000027,-10.000000000000044
-0.0,-40.00000000000018,-40.00000000000018,20.00000000000009,10.000000000000044,-40.00000000000018,-110.00000000000048,-130.00000000000057,-70.00000000000031,-60.00000000000027,-60.00000000000027,-10.000000000000044
-0.0,-40.00000000000018,-50.00000000000022,10.000000000000044,20.00000000000009,-40.00000000000018,-70.00000000000031,-90.0000000000004,-40.00000000000018,-50.00000000000022,-60.00000000000027,-10.000000000000044
20.00000000000009,-40.00000000000018,-50.00000000000022,-0.0,30.000000000000135,-40.00000000000018,-40.00000000000018,-70.00000000000031,-20.00000000000009,-60.00000000000027,-60.00000000000027,-20.00000000000009
50.00000000000022,-30.000000000000135,-60.00000000000027,-20.00000000000009,50.00000000000022,-30.000000000000135,-20.00000000000009,-50.00000000000022,-0.0,-70.00000000000031,-60.00000000000027,-20.00000000000009
90.0000000000004,-10.000000000000044,-60.00000000000027,-60.00000000000027,70.00000000000031,-20.00000000000009,-0.0,-40.00000000000018,-0.0,-70.00000000000031,-70.00000000000031,-30.000000000000135
130.00000000000057,20.00000000000009,-50.00000000000022,-100.00000000000044,80.00000000000036,10.000000000000044,-0.0,-30.000000000000135,-0.0,-70.00000000000031,-70.00000000000031,-30.000000000000135
170.00000000000077,70.00000000000031,-30.000000000000135,-160.0000000000007,100.00000000000044,50.00000000000022,-0.0,-20.00000000000009,10.000000000000044,-70.00000000000031,-70.00000000000031,-30.000000000000135
210.00000000000094,140.00000000000063,-10.000000000000044,-210.00000000000094,100.00000000000044,90.0000000000004,10.000000000000044,-20.00000000000009,20.00000000000009,-70.00000000000031,-70.00000000000031,-30.000000000000135
230.00000000000102,200.00000000000088,-0.0,-240.00000000000108,110.00000000000048,120.00000000000054,20.00000000000009,-10.000000000000044,30.000000000000135,-70.00000000000031,-70.00000000000031,-30.000000000000135
250.0000000000011,240.00000000000108,10.000000000000044,-260.00000000000114,110.00000000000048,140.00000000000063,20.00000000000009,-10.000000000000044,30.000000000000135,-70.00000000000031,-60.00000000000027,-30.000000000000135
230.00000000000102,270.0000000000012,20.00000000000009,-250.0000000000011,100.00000000000044,130.00000000000057,20.00000000000009,-0.0,40.00000000000018,-70.00000000000031,-60.00000000000027,-30.000000000000135
200.00000000000088,250.0000000000011,10.000000000000044,-220.00000000000097,90.0000000000004,110.00000000000048,30.000000000000135,-0.0,50.00000000000022,-70.00000000000031,-60.00000000000027,-30.000000000000135
160.0000000000007,220.00000000000097,-0.0,-170.00000000000077,70.00000000000031,90.0000000000004,30.000000000000135,-0.0,50.00000000000022,-60.00000000000027,-60.00000000000027,-30.000000000000135
120.00000000000054,180.0000000000008,-0.0,-120.00000000000054,50.00000000000022,60.00000000000027,40.00000000000018,-0.0,60.00000000000027,-60.00000000000027,-60.00000000000027,-30.000000000000135
70.00000000000031,120.00000000000054,-0.0,-70.00000000000031,30.000000000000135,30.000000000000135,40.00000000000018,10.000000000000044,70.00000000000031,-60.00000000000027,-50.00000000000022,-30.000000000000135
20.00000000000009,70.00000000000031,-0.0,-30.000000000000135,-0.0,10.000000000000044,40.00000000000018,20.00000000000009,70.00000000000031,-60.00000000000027,-50.00000000000022,-30.000000000000135
-0.0,30.000000000000135,-0.0,-0.0,-0.0,-0.0,50.00000000000022,20.00000000000009,80.00000000000036,-50.00000000000022,-50.00000000000022,-30.000000000000135
-20.00000000000009,-0.0,-0.0,10.000000000000044,-10.000000000000044,-0.0,50.00000000000022,30.000000000000135,90.0000000000004,-50.00000000000022,-50.00000000000022,-30.000000000000135
-30.000000000000135,-20.00000000000009,-0.0,20.00000000000009,-10.000000000000044,-10.000000000000044,50.00000000000022,40.00000000000018,100.00000000000044,-50.00000000000022,-40.00000000000018,-30.000000000000135
-30.000000000000135,-30.000000000000135,-0.0,30.000000000000135,-10.000000000000044,-10.000000000000044,60.00000000000027,50.00000000000022,110.00000000000048,-40.00000000000018,-40.00000000000018,-30.000000000000135
-30.000000000000135,-30.000000000000135,-0.0,30.000000000000135,-10.000000000000044,-10.000000000000044,60.00000000000027,60.00000000000027,120.00000000000054,-40.00000000000018,-40.00000000000018,-30.000000000000135
-20.00000000000009,-30.000000000000135,-0.0,20.00000000000009,-0.0,-10.000000000000044,70.00000000000031,70.00000000000031,130.00000000000057,-30.000000000000135,-30.000000000000135,-20.00000000000009
-10.000000000000044,-30.000000000000135,-10.000000000000044,20.00000000000009,-0.0,-20.00000000000009,70.00000000000031,90.0000000000004,150.00000000000065,-30.000000000000135,-30.000000000000135,-20.00000000000009
-10.000000000000044,-20.00000000000009,-20.00000000000009,10.000000000000044,-0.0,-20.00000000000009,80.00000000000036,100.00000000000044,160.0000000000007,-20.00000000000009,-20.00000000000009,-20.00000000000009
-0.0,-30.000000000000135,-30.000000000000135,20.00000000000009,-0.0,-30.000000000000135,90.0000000000004,110.00000000000048,180.0000000000008,-10.000000000000044,-20.00000000000009,-20.00000000000009
-0.0,-30.000000000000135,-30.000000000000135,20.00000000000009,10.000000000000044,-40.00000000000018,90.0000000000004,130.00000000000057,200.00000000000088,-0.0,-10.000000000000044,-10.000000000000044
-0.0,-40.00000000000018,-40.00000000000018,20.00000000000009,10.000000000000044,-40.00000000000018,100.00000000000044,150.00000000000065,220.00000000000097,-0.0,-10.000000000000044,-10.000000000000044
-0.0,-50.00000000000022,-40.00000000000018,30.000000000000135,10.000000000000044,-40.00000000000018,110.00000000000048,170.00000000000077,240.00000000000108,-0.0,-0.0,-0.0
-0.0,-50.00000000000022,-40.00000000000018,20.00000000000009,10.000000000000044,-40.00000000000018,110.00000000000048,190.00000000000085,260.00000000000114,10.000000000000044,-0.0,-0.0
-0.0,-50.00000000000022,-40.00000000000018,20.00000000000009,10.000000000000044,-40.00000000000018,120.00000000000054,220.00000000000097,290.0000000000013,20.00000000000009,-0.0,-0.0
-0.0,-40.00000000000018,-40.00000000000018,20.00000000000009,10.000000000000044,-40.00000000000018,130.00000000000057,240.00000000000108,310.00000000000136,30.000000000000135,10.000000000000044,10.000000000000044
-0.0,-40.00000000000018,-40.00000000000018,20.00000000000009,10.000000000000044,-40.00000000000018,140.00000000000063,270.0000000000012,330.0000000000015,50.00000000000022,20.00000000000009,20.00000000000009
-0.0,-40.00000000000018,-40.00000000000018,20.00000000000009,10.000000000000044,-40.00000000000018,150.00000000000065,290.0000000000013,350.00000000000153,60.00000000000027,30.000000000000135,30.000000000000135
-0.0,-40.00000000000018,-40.00000000000018,20.00000000000009,20.00000000000009,-40.00000000000018,160.0000000000007,310.00000000000136,370.00000000000165,70.00000000000031,50.00000000000022,40.00000000000018
-0.0,-40.00000000000018,-40.00000000000018,20.00000000000009,20.00000000000009,-40.00000000000018,170.00000000000077,330.0000000000015,390.0000000000017,80.00000000000036,60.00000000000027,50.00000000000022
-0.0,-40.00000000000018,-40.00000000000018,20.00000000000009,20.00000000000009,-40.00000000000018,180.0000000000008,350.00000000000153,400.00000000000176,90.0000000000004,70.00000000000031,60.00000000000027
-0.0,-40.00000000000018,-40.00000000000018,20.00000000000009,20.00000000000009,-40.00000000000018,180.0000000000008,360.0000000000016,410.0000000000018,90.0000000000004,70.00000000000031,70.00000000000031
-0.0,-40.00000000000018,-40.00000000000018,20.00000000000009,20.00000000000009,-40.00000000000018,190.00000000000085,370.00000000000165,420.0000000000019,100.00000000000044,80.00000000000036,80.00000000000036
-0.0,-40.00000000000018,-40.00000000000018,10.000000000000044,10.000000000000044,-40.00000000000018,190.00000000000085,380.0000000000017,420.0000000000019,100.00000000000044,90.0000000000004,80.00000000000036
-0.0,-40.00000000000018,-40.00000000000018,10.000000000000044,10.000000000000044,-30.000000000000135,190.00000000000085,390.0000000000017,420.0000000000019,90.0000000000004,90.0000000000004,90.0000000000004
-0.0,-30.000000000000135,-30.000000000000135,10.000000000000044,10.000000000000044,-30.000000000000135,190.00000000000085,380.0000000000017,420.0000000000019,90.0000000000004,90.0000000000004,90.0000000000004
-0.0,-30.000000000000135,-30.000000000000135,10.000000000000044,10.000000000000044,-30.000000000000135,190.00000000000085,370.00000000000165,410.0000000000018,80.00000000000036,90.0000000000004,100.00000000000044
-0.0,-30.000000000000135,-30.000000000000135,-0.0,10.000000000000044,-20.00000000000009,190.00000000000085,360.0000000000016,400.00000000000176,70.00000000000031,90.0000000000004,100.00000000000044
-0.0,-20.00000000000009,-30.000000000000135,-0.0,20.00000000000009,-20.00000000000009,180.0000000000008,350.00000000000153,380.0000000000017,70.00000000000031,90.0000000000004,100.00000000000044
10.000000000000044,-20.00000000000009,-30.000000000000135,-0.0,20.00000000000009,-20.00000000000009,180.0000000000008,330.0000000000015,360.0000000000016,60.00000000000027,80.00000000000036,100.00000000000044
10.000000000000044,-20.00000000000009,-30.000000000000135,-0.0,20.00000000000009,-20.00000000000009,170.00000000000077,310.00000000000136,340.00000000000153,50.00000000000022,80.00000000000036,100.00000000000044
10.000000000000044,-20.00000000000009,-30.000000000000135,-0.0,20.00000000000009,-20.00000000000009,160.0000000000007,290.0000000000013,320.0000000000014,40.00000000000018,70.00000000000031,100.00000000000044
20.00000000000009,-10.000000000000044,-40.00000000000018,-0.0,30.000000000000135,-20.00000000000009,150.00000000000065,270.0000000000012,290.0000000000013,30.000000000000135,60.00000000000027,90.0000000000004
20.00000000000009,-10.000000000000044,-40.00000000000018,-0.0,30.000000000000135,-20.00000000000009,140.00000000000063,240.00000000000108,260.00000000000114,20.00000000000009,60.00000000000027,80.00000000000036
30.000000000000135,-10.000000000000044,-40.00000000000018,-10.000000000000044,30.000000000000135,-20.00000000000009,120.00000000000054,210.00000000000094,230.00000000000102,10.000000000000044,50.00000000000022,80.00000000000036
40.00000000000018,-0.0,-40.00000000000018,-20.00000000000009,40.00000000000018,-10.000000000000044,110.00000000000048,180.0000000000008,200.00000000000088,-0.0,40.00000000000018,70.00000000000031
40.00000000000018,-0.0,-40.00000000000018,-20.00000000000009,40.00000000000018,-10.000000000000044,100.00000000000044,150.00000000000065,170.00000000000077,-0.0,30.000000000000135,60.00000000000027
40.00000000000018,-0.0,-30.000000000000135,-30.000000000000135,30.000000000000135,-0.0,90.0000000000004,120.00000000000054,140.00000000000063,-0.0,20.00000000000009,40.00000000000018
50.00000000000022,10.000000000000044,-20.00000000000009,-40.00000000000018,30.000000000000135,-0.0,70.00000000000031,100.00000000000044,110.00000000000048,-0.0,10.000000000000044,30.000000000000135
50.00000000000022,20.00000000000009,-10.000000000000044,-40.00000000000018,30.000000000000135,-0.0,60.00000000000027,80.00000000000036,90.0000000000004,-0.0,10.000000000000044,20.00000000000009
60.00000000000027,30.000000000000135,-10.000000000000044,-50.00000000000022,30.000000000000135,10.000000000000044,50.00000000000022,60.00000000000027,70.00000000000031,-0.0,-0.0,20.00000000000009
60.00000000000027,40.00000000000018,-0.0,-70.00000000000031,30.000000000000135,20.00000000000009,40.00000000000018,40.00000000000018,50.00000000000022,-0.0,-0.0,10.000000000000044
70.00000000000031,60.00000000000027,-0.0,-80.00000000000036,30.000000000000135,30.000000000000135,30.000000000000135,20.00000000000009,40.00000000000018,-10.000000000000044,-0.0,-0.0
80.00000000000036,70.00000000000031,-0.0,-90.0000000000004,30.000000000000135,40.00000000000018,20.00000000000009,10.000000000000044,30.000000000000135,-10.000000000000044,-0.0,-0.0
90.0000000000004,90.0000000000004,10.000000000000044,-100.00000000000044,30.000000000000135,50.00000000000022,20.00000000000009,-0.0,20.00000000000009,-10.000000000000044,-0.0,-0.0
90.0000000000004,100.00000000000044,10.000000000000044,-100.00000000000044,30.000000000000135,60.00000000000027,20.00000000000009,-0.0,10.000000000000044,-10.000000000000044,-0.0,-0.0
90.0000000000004,110.00000000000048,20.00000000000009,-110.00000000000048,30.000000000000135,70.00000000000031,10.000000000000044,-0.0,10.000000000000044,-10.000000000000044,-0.0,-0.0
100.00000000000044,120.00000000000054,20.00000000000009,-110.00000000000048,30.000000000000135,70.00000000000031,10.000000000000044,-0.0,-0.0,-10.000000000000044,-0.0,-0.0
100.00000000000044,120.00000000000054,30.000000000000135,-110.00000000000048,30.000000000000135,80.00000000000036,10.000000000000044,-0.0,-0.0,-10.000000000000044,-0.0,-0.0
100.00000000000044,130.00000000000057,30.000000000000135,-110.00000000000048,20.00000000000009,80.00000000000036,10.000000000000044,-10.000000000000044,-0.0,-10.000000000000044,-0.0,-0.0
90.0000000000004,130.00000000000057,40.00000000000018,-110.00000000000048,20.00000000000009,90.0000000000004,-0.0,-10.000000000000044,-0.0,-10.000000000000044,-0.0,-0.0
90.0000000000004,140.00000000000063,40.00000000000018,-110.00000000000048,20.00000000000009,90.0000000000004,-0.0,-10.000000000000044,-0.0,-10.000000000000044,-0.0,-0.0
90.0000000000004,140.00000000000063,50.00000000000022,-110.00000000000048,10.000000000000044,90.0000000000004,-0.0,-10.000000000000044,-0.0,-10.000000000000044,-0.0,-0.0
80.00000000000036,140.00000000000063,50.00000000000022,-110.00000000000048,10.000000000000044,90.0000000000004,-0.0,-10.000000000000044,-0.0,-10.000000000000044,-10.000000000000044,-0.0
70.00000000000031,140.00000000000063,50.00000000000022,-100.00000000000044,-0.0,90.0000000000004,-0.0,-10.000000000000044,-0.0,-10.000000000000044,-10.000000000000044,-0.0
70.00000000000031,130.00000000000057,50.00000000000022,-100.00000000000044,-0.0,90.0000000000004,-0.0,-10.000000000000044,-0.0,-10.000000000000044,-0.0,-0.0
60.00000000000027,120.00000000000054,50.00000000000022,-90.0000000000004,-0.0,80.00000000000036,-0.0,-10.000000000000044,-0.0,-10.000000000000044,-0.0,-10.000000000000044
50.00000000000022,110.00000000000048,50.00000000000022,-80.00000000000036,-0.0,80.00000000000036,-0.0,-10.000000000000044,-0.0,-10.000000000000044,-10.000000000000044,-10.000000000000044
50.00000000000022,100.00000000000044,40.00000000000018,-70.00000000000031,-0.0,70.00000000000031,-0.0,-0.0,-0.0,-0.0,-10.000000000000044,-10.000000000000044
40.00000000000018,90.0000000000004,30.000000000000135,-60.00000000000027,-0.0,60.00000000000027,-0.0,-0.0,-0.0,-0.0,-0.0,-10.000000000000044
30.000000000000135,80.00000000000036,30.000000000000135,-50.00000000000022,-0.0,50.00000000000022,-0.0,-0.0,-0.0,-0.0,-0.0,-10.000000000000044
20.00000000000009,70.00000000000031,30.000000000000135,-40.00000000000018,-0.0,40.00000000000018,-0.0,-0.0,-0.0,-0.0,-0.0,-0.0
10.000000000000044,50.00000000000022,20.00000000000009,-30.000000000000135,-0.0,30.000000000000135,-0.0,-0.0,-0.0,-0.0,-0.0,-0.0
-0.0,40.00000000000018,20.00000000000009,-20.00000000000009,-0.0,20.00000000000009,-0.0,-0.0,-0.0,-0.0,-0.0,-0.0
-0.0,30.000000000000135,20.00000000000009,-10.000000000000044,-0.0,20.00000000000009,-0.0,-0.0,-0.0,-0.0,-0.0,-0.0
-0.0,20.00000000000009,10.000000000000044,-0.0,-0.0,10.000000000000044,-0.0,-0.0,-0.0,-0.0,-0.0,-0.0
-0.0,10.000000000000044,-0.0,-0.0,-0.0,-0.0,-0.0,-0.0,-0.0,-0.0,-0.0,-0.0
-0.0,-0.0,-0.0,-0.0,-0.0,-0.0,-0.0,-0.0,-0.0,-0.0,-0.0,-0.0
-0.0,-0.0,-0.0,-0.0,-0.0,-0.0,-0.0,-0.0,-0.0,-0.0,-0.0,-0.0
-0.0,-0.0,-0.0,-0.0,-0.0,-0.0,-0.0,-0.0,-0.0,-0.0,-0.0,-0.0
-0.0,-0.0,-0.0,-0.0,-0.0,-0.0,-0.0,-0.0,-0.0,-0.0,-0.0,-0.0
-0.0,-0.0,-0.0,-0.0,-0.0,-0.0,-0.0,-0.0,-0.0,-0.0,-0.0,-0.0
-0.0,-0.0,-0.0,-0.0,-0.0,-0.0,-0.0,-0.0,-0.0,-0.0,-0.0,-0.0
-0.0,-0.0,-0.0,-0.0,-0.0,-0.0,-0.0,-0.0,-0.0,-0.0,-0.0,-0.0
-0.0,-0.0,-0.0,-0.0,-0.0,-0.0,-0.0,-0.0,-0.0,-0.0,-0.0,-0.0
-0.0,-10.000000000000044,-0.0,-0.0,-0.0,-10.000000000000044,-0.0,-0.0,-0.0,-0.0,-0.0,-0.0
-0.0,-10.000000000000044,-0.0,10.000000000000044,-0.0,-10.000000000000044,-0.0,-0.0,-0.0,-0.0,-0.0,-0.0
-0.0,-10.000000000000044,-0.0,10.000000000000044,-0.0,-10.000000000000044,-0.0,-0.0,-0.0,-0.0,-0.0,-0.0
-0.0,-10.000000000000044,-0.0,10.000000000000044,-0.0,-10.000000000000044,-0.0,-0.0,-0.0,-0.0,-0.0,-0.0
-0.0,-10.000000000000044,-0.0,10.000000000000044,-0.0,-10.000000000000044,10.000000000000044,-0.0,-0.0,-0.0,-0.0,-0.0
-0.0,-10.000000000000044,-10.000000000000044,10.000000000000044,-0.0,-10.000000000000044,10.000000000000044,-0.0,-0.0,-0.0,-0.0,-0.0
-0.0,-10.000000000000044,-10.000000000000044,10.000000000000044,-0.0,-10.000000000000044,10.000000000000044,-0.0,-0.0,-0.0,-0.0,-0.0
-0.0,-10.000000000000044,-10.000000000000044,-0.0,-0.0,-10.000000000000044,10.000000000000044,-0.0,-0.0,-0.0,-0.0,-0.0
-0.0,-10.000000000000044,-0.0,-0.0,-0.0,-10.000000000000044,-0.0,-10.000000000000044,-0.0,-10.000000000000044,-0.0,-0.0
-0.0,-10.000000000000044,-0.0,-0.0,-0.0,-0.0,-0.0,-10.000000000000044,-0.0,-10.000000000000044,-10.000000000000044,-0.0
-0.0,-10.000000000000044,-0.0,-0.0,-0.0,-0.0,-0.0,-10.000000000000044,-10.000000000000044,-10.000000000000044,-10.000000000000044,-0.0
-0.0,-10.000000000000044,-0.0,-0.0,-0.0,-0.0,-0.0,-20.00000000000009,-10.000000000000044,-10.000000000000044,-10.000000000000044,-0.0
-0.0,-0.0,-0.0,-0.0,-0.0,-0.0,-0.0,-20.00000000000009,-10.000000000000044,-10.000000000000044,-10.000000000000044,-0.0
-0.0,-0.0,-0.0,-0.0,-0.0,-0.0,-0.0,-20.00000000000009,-10.000000000000044,-10.000000000000044,-10.000000000000044,-0.0
-0.0,-0.0,-0.0,-0.0,-0.0,-0.0,-0.0,-20.00000000000009,-20.00000000000009,-10.000000000000044,-10.000000000000044,-0.0
-0.0,-0.0,-0.0,-0.0,-0.0,-0.0,-0.0,-20.00000000000009,-10.000000000000044,-10.000000000000044,-10.000000000000044,-0.0
-0.0,-0.0,-0.0,-0.0,-0.0,-0.0,-0.0,-20.00000000000009,-10.000000000000044,-10.000000000000044,-0.0,-0.0
-0.0,-0.0,-0.0,-0.0,-0.0,-0.0,-0.0,-20.00000000000009,-10.000000000000044,-0.0,-0.0,-0.0
-0.0,-0.0,-0.0,-0.0,-0.0,-0.0,-0.0,-10.000000000000044,-10.000000000000044,-0.0,-0.0,-0.0
-0.0,-0.0,-0.0,-0.0,-0.0,-0.0,-0.0,-10.000000000000044,-10.000000000000044,-0.0,-0.0,-0.0
-0.0,-0.0,-0.0,-0.0,-0.0,-0.0,-0.0,-10.000000000000044,-0.0,-0.0,-0.0,10.000000000000044
-0.0,-0.0,-0.0,-0.0,-0.0,-0.0,-0.0,-0.0,-0.0,-0.0,-0.0,10.000000000000044
-0.0,-0.0,-0.0,-0.0,-0.0,-0.0,-0.0,-0.0,-0.0,10.000000000000044,-0.0,10.000000000000044
-0.0,-0.0,-0.0,-0.0,-0.0,-0.0,-0.0,-0.0,-0.0,10.000000000000044,10.000000000000044,20.00000000000009
-0.0,-0.0,-0.0,-0.0,-0.0,-0.0,-0.0,-0.0,-0.0,20.00000000000009,10.000000000000044,20.00000000000009
-0.0,-0.0,-0.0,-0.0,-0.0,-0.0,-0.0,-0.0,-0.0,20.00000000000009,20.00000000000009,30.000000000000135
-0.0,-0.0,-0.0,-0.0,-0.0,-0.0,-0.0,10.000000000000044,-0.0,30.000000000000135,20.00000000000009,30.000000000000135
-0.0,-0.0,-0.0,-0.0,-0.0,-0.0,-0.0,10.000000000000044,-0.0,40.00000000000018,30.000000000000135,40.00000000000018
-0.0,-0.0,-0.0,-0.0,-0.0,-0.0,-0.0,20.00000000000009,-0.0,50.00000000000022,40.00000000000018,50.00000000000022
-0.0,-0.0,-0.0,-0.0,-0.0,-0.0,-0.0,20.00000000000009,-0.0,60.00000000000027,50.00000000000022,60.00000000000027
-0.0,-0.0,-0.0,-0.0,-0.0,-0.0,-10.000000000000044,20.00000000000009,-0.0,60.00000000000027,60.00000000000027,70.00000000000031
-0.0,-0.0,-0.0,-0.0,-0.0,-0.0,-10.000000000000044,20.00000000000009,-0.0,60.00000000000027,60.00000000000027,70.00000000000031
-0.0,-0.0,-0.0,-0.0,-0.0,-0.0,-20.00000000000009,20.00000000000009,-0.0,60.00000000000027,60.00000000000027,70.00000000000031
-0.0,-0.0,-0.0,-0.0,-0.0,-0.0,-20.00000000000009,10.000000000000044,-10.000000000000044,50.00000000000022,60.00000000000027,70.00000000000031
-0.0,-0.0,-0.0,-0.0,-0.0,-0.0,-20.00000000000009,-0.0,-10.000000000000044,40.00000000000018,50.00000000000022,60.00000000000027
-0.0,-0.0,-0.0,-0.0,-0.0,-0.0,-30.000000000000135,-0.0,-20.00000000000009,30.000000000000135,40.00000000000018,50.00000000000022
-0.0,-0.0,-0.0,-0.0,-0.0,-0.0,-30.000000000000135,-0.0,-30.000000000000135,10.000000000000044,30.000000000000135,40.00000000000018
