I,II,III,aVR,aVL,aVF,V1,V2,V3,V4,V5,V6
-10.000000000000044,-20.00000000000009,-10.000000000000044,10.000000000000044,-0.0,-10.000000000000044,-0.0,-0.0,-20.00000000000009,-30.000000000000135,-0.0,-0.0
-10.000000000000044,-20.00000000000009,-10.000000000000044,10.000000000000044,-0.0,-20.00000000000009,-10.000000000000044,-20.00000000000009,-30.000000000000135,-30.000000000000135,-20.00000000000009,-0.0
-10.000000000000044,-20.00000000000009,-20.00000000000009,10.000000000000044,-0.0,-20.00000000000009,-10.000000000000044,-20.00000000000009,-30.000000000000135,-40.00000000000018,-20.00000000000009,-0.0
-20.00000000000009,-30.000000000000135,-20.00000000000009,20.00000000000009,-0.0,-40.00000000000018,-0.0,-20.00000000000009,-30.000000000000135,-40.00000000000018,-30.000000000000135,-10.000000000000044
-20.00000000000009,-50.00000000000022,-40.00000000000018,40.00000000000018,-0.0,-60.00000000000027,-0.0,-20.00000000000009,-30.000000000000135,-40.00000000000018,-30.000000000000135,-10.000000000000044
-20.00000000000009,-70.00000000000031,-70.00000000000031,50.00000000000022,10.000000000000044,-80.00000000000036,-0.0,-20.00000000000009,-30.000000000000135,-30.000000000000135,-30.000000000000135,-10.000000000000044
-20.00000000000009,-100.00000000000044,-90.0000000000004,70.00000000000031,30.000000000000135,-110.00000000000048,-0.0,-20.00000000000009,-30.000000000000135,-30.000000000000135,-30.000000000000135,-10.000000000000044
-0.0,-120.00000000000054,-120.00000000000054,50.00000000000022,60.00000000000027,-120.00000000000054,-0.0,-20.00000000000009,-30.000000000000135,-30.000000000000135,-20.00000000000009,-10.000000000000044
50.00000000000022,-120.00000000000054,-140.00000000000063,-0.0,90.0000000000004,-110.00000000000048,-10.000000000000044,-20.00000000000009,-30.000000000000135,-30.000000000000135,-30.000000000000135,-10.000000000000044
140.00000000000063,-80.00000000000036,-130.00000000000057,-80.00000000000036,130.00000000000057,-50.00000000000022,-10.000000000000044,-20.00000000000009,-180.0000000000008,-180.0000000000008,-30.000000000000135,-10.000000000000044
260.00000000000114,10.000000000000044,-100.00000000000044,-210.00000000000094,180.0000000000008,-360.0000000000016,-180.0000000000008,-180.0000000000008,-190.00000000000085,-190.00000000000085,-180.0000000000008,-180.0000000000008
380.0000000000017,150.00000000000065,-50.00000000000022,-270.0000000000012,210.00000000000094,-360.0000000000016,-190.00000000000085,-190.00000000000085,-210.00000000000094,-210.00000000000094,-190.00000000000085,-190.00000000000085
480.00000000000216,330.0000000000015,20.00000000000009,-260.00000000000114,220.00000000000097,-360.0000000000016,-210.00000000000094,-210.00000000000094,-220.00000000000097,-220.00000000000097,-210.00000000000094,-210.00000000000094
530.0000000000024,500.0000000000022,100.00000000000044,-260.00000000000114,210.00000000000094,-370.00000000000165,-220.00000000000097,-220.00000000000097,-240.00000000000108,-240.00000000000108,-220.00000000000097,-220.00000000000097
520.0000000000023,630.0000000000028,160.0000000000007,-260.00000000000114,170.00000000000077,-370.00000000000165,-240.00000000000108,-240.00000000000108,-260.00000000000114,-260.00000000000114,-240.00000000000108,-240.00000000000108
450.000000000002,690.0000000000031,200.00000000000088,-250.0000000000011,120.00000000000054,-330.0000000000015,-260.00000000000114,-260.00000000000114,-290.0000000000013,-290.0000000000013,-260.00000000000114,-260.00000000000114
350.00000000000153,650.0000000000028,210.00000000000094,-250.0000000000011,60.00000000000027,-320.0000000000014,-290.0000000000013,-290.0000000000013,-320.0000000000014,-320.0000000000014,-290.0000000000013,-290.0000000000013
250.0000000000011,560.0000000000025,170.00000000000077,-250.0000000000011,20.00000000000009,-320.0000000000014,-320.0000000000014,-320.0000000000014,-350.00000000000153,-350.00000000000153,-320.0000000000014,-320.0000000000014
170.00000000000077,430.00000000000193,130.00000000000057,-240.00000000000108,10.000000000000044,-320.0000000000014,-350.00000000000153,-350.00000000000153,-360.0000000000016,-360.0000000000016,-350.00000000000153,-350.00000000000153
110.00000000000048,310.00000000000136,100.00000000000044,-160.0000000000007,-0.0,-310.00000000000136,-360.0000000000016,-360.0000000000016,-380.0000000000017,-380.0000000000017,-360.0000000000016,-360.0000000000016
60.00000000000027,220.00000000000097,80.00000000000036,-110.00000000000048,-0.0,-310.00000000000136,-380.0000000000017,-380.0000000000017,-400.00000000000176,-400.00000000000176,-380.0000000000017,-380.0000000000017
30.000000000000135,150.00000000000065,60.00000000000027,-70.00000000000031,-10.000000000000044,-310.00000000000136,-400.00000000000176,-400.00000000000176,-380.0000000000017,-380.0000000000017,-400.00000000000176,-400.00000000000176
10.000000000000044,100.00000000000044,60.00000000000027,-50.00000000000022,-20.00000000000009,-320.0000000000014,-380.0000000000017,-380.0000000000017,-360.0000000000016,-360.0000000000016,-380.0000000000017,-380.0000000000017
-10.000000000000044,80.00000000000036,70.00000000000031,-30.000000000000135,-40.00000000000018,-330.0000000000015,-360.0000000000016,-360.0000000000016,-350.00000000000153,-350.00000000000153,-360.0000000000016,-360.0000000000016
-20.00000000000009,60.00000000000027,50.00000000000022,-10.000000000000044,-40.00000000000018,-330.0000000000015,-350.00000000000153,-350.00000000000153,-320.0000000000014,-320.0000000000014,-350.00000000000153,-350.00000000000153
-30.000000000000135,30.000000000000135,40.00000000000018,-0.0,-30.000000000000135,-340.00000000000153,-320.0000000000014,-320.0000000000014,-290.0000000000013,-290.0000000000013,-320.0000000000014,-320.0000000000014
-30.000000000000135,-0.0,20.00000000000009,10.000000000000044,-30.000000000000135,10.000000000000044,-280.00000000000125,-290.0000000000013,-260.00000000000114,-260.00000000000114,-290.0000000000013,-290.0000000000013
-20.00000000000009,-0.0,10.000000000000044,-0.0,-10.000000000000044,-0.0,-260.00000000000114,-130.00000000000057,-240.00000000000108,-240.00000000000108,-260.00000000000114,-260.00000000000114
-10.000000000000044,-0.0,-0.0,-0.0,-10.000000000000044,-0.0,-240.00000000000108,-360.0000000000016,-150.00000000000065,-220.00000000000097,-240.00000000000108,-240.00000000000108
-0.0,-0.0,-0.0,-0.0,-0.0,-0.0,-220.00000000000097,-720.0000000000032,-560.0000000000025,-0.0,-220.00000000000097,-220.00000000000097
-0.0,-0.0,-0.0,-0.0,-0.0,-0.0,-210.00000000000094,-1010.0000000000044,-910.0000000000041,-190.00000000000085,-210.00000000000094,-210.00000000000094
-0.0,-0.0,-0.0,-0.0,-0.0,-0.0,-190.00000000000085,-1200.0000000000052,-1120.000000000005,-180.0000000000008,-190.00000000000085,-190.00000000000085
-10.000000000000044,-0.0,-0.0,-0.0,-0.0,-0.0,-180.0000000000008,-1260.0000000000057,-1100.0000000000048,-340.00000000000153,-180.0000000000008,-180.0000000000008
-10.000000000000044,-10.000000000000044,-10.000000000000044,10.000000000000044,-0.0,-10.000000000000044,-1040.0000000000045,-1140.000000000005,-940.0000000000042,-340.00000000000153,-100.00000000000044,240.00000000000108
-10.000000000000044,-20.00000000000009,-10.000000000000044,10.000000000000044,-0.0,-10.000000000000044,-810.0000000000036,-930.0000000000041,-720.0000000000032,-330.0000000000015,-190.00000000000085,110.00000000000048
-10.000000000000044,-20.00000000000009,-0.0,10.000000000000044,-0.0,-10.000000000000044,-600.0000000000026,-700.0000000000031,-470.0000000000021,-410.0000000000018,-210.00000000000094,20.00000000000009
-0.0,-20.00000000000009,-10.000000000000044,10.000000000000044,-0.0,-10.000000000000044,-420.0000000000019,-470.0000000000021,-330.0000000000015,-310.00000000000136,-270.0000000000012,-40.00000000000018
-0.0,-10.000000000000044,-10.000000000000044,-0.0,-0.0,-10.000000000000044,-280.00000000000125,-300.0000000000013,-210.00000000000094,-260.00000000000114,-250.0000000000011,-70.00000000000031
-0.0,-10.000000000000044,-10.000000000000044,-0.0,-0.0,-10.000000000000044,-200.00000000000088,-210.00000000000094,-190.00000000000085,-190.00000000000085,-230.00000000000102,-90.0000000000004
-0.0,-10.000000000000044,-10.000000000000044,10.000000000000044,-0.0,-10.000000000000044,-120.00000000000054,-140.00000000000063,-130.00000000000057,-160.0000000000007,-150.00000000000065,-100.00000000000044
-10.000000000000044,-20.00000000000009,-0.0,10.000000000000044,-0.0,-10.000000000000044,-70.00000000000031,-100.00000000000044,-90.0000000000004,-120.00000000000054,-140.00000000000063,-100.00000000000044
-20.00000000000009,-20.00000000000009,-0.0,20.00000000000009,-0.0,-10.000000000000044,-30.000000000000135,-60.00000000000027,-40.00000000000018,-80.00000000000036,-120.00000000000054,-100.00000000000044
-10.000000000000044,-20.00000000000009,-10.000000000000044,10.000000000000044,-0.0,-10.000000000000044,-10.000000000000044,-20.00000000000009,-10.000000000000044,-50.00000000000022,-100.00000000000044,-90.0000000000004
-10.000000000000044,-20.00000000000009,-0.0,10.000000000000044,-0.0,-10.000000000000044,10.000000000000044,-0.0,-0.0,-40.00000000000018,-80.00000000000036,-80.00000000000036
-10.000000000000044,-20.00000000000009,-0.0,10.000000000000044,-0.0,-10.000000000000044,30.000000000000135,20.00000000000009,-0.0,-30.000000000000135,-80.00000000000036,-70.00000000000031
-0.0,-20.00000000000009,-10.000000000000044,-0.0,-0.0,-10.000000000000044,40.00000000000018,30.000000000000135,10.000000000000044,-20.00000000000009,-70.00000000000031,-70.00000000000031
-0.0,-20.00000000000009,-10.000000000000044,-0.0,-0.0,-10.000000000000044,50.00000000000022,40.00000000000018,20.00000000000009,-20.00000000000009,-70.00000000000031,-70.00000000000031
-0.0,-10.000000000000044,-10.000000000000044,-0.0,-0.0,-10.000000000000044,60.00000000000027,50.00000000000022,30.000000000000135,-10.000000000000044,-70.00000000000031,-70.00000000000031
-0.0,-20.00000000000009,-20.00000000000009,10.000000000000044,-0.0,-20.00000000000009,60.00000000000027,50.00000000000022,40.00000000000018,-0.0,-50.00000000000022,-60.00000000000027
-0.0,-30.000000000000135,-20.00000000000009,20.00000000000009,-0.0,-30.000000000000135,70.00000000000031,70.00000000000031,60.00000000000027,10.000000000000044,-40.00000000000018,-50.00000000000022
-20.00000000000009,-30.000000000000135,-10.000000000000044,20.00000000000009,-0.0,-20.00000000000009,70.00000000000031,90.0000000000004,70.00000000000031,20.00000000000009,-40.00000000000018,-50.00000000000022
-20.00000000000009,-30.000000000000135,-10.000000000000044,20.00000000000009,-0.0,-20.00000000000009,80.00000000000036,100.00000000000044,70.00000000000031,20.00000000000009,-30.000000000000135,-50.00000000000022
-10.000000000000044,-30.000000000000135,-10.000000000000044,20.00000000000009,-0.0,-20.00000000000009,90.0000000000004,100.00000000000044,80.00000000000036,30.000000000000135,-30.000000000000135,-40.00000000000018
-10.000000000000044,-30.000000000000135,-10.000000000000044,10.000000000000044,-0.0,-10.000000000000044,90.0000000000004,110.00000000000048,80.00000000000036,30.000000000000135,-30.000000000000135,-40.00000000000018
-0.0,-20.00000000000009,-20.00000000000009,-0.0,-0.0,-20.00000000000009,90.0000000000004,120.00000000000054,80.00000000000036,30.000000000000135,-30.000000000000135,-50.00000000000022
-0.0,-20.00000000000009,-20.00000000000009,-0.0,10.000000000000044,-20.00000000000009,90.0000000000004,120.00000000000054,80.00000000000036,30.000000000000135,-30.000000000000135,-50.00000000000022
-0.0,-10.000000000000044,-20.00000000000009,-0.0,-0.0,-10.000000000000044,100.00000000000044,120.00000000000054,80.00000000000036,30.000000000000135,-30.000000000000135,-50.00000000000022
-0.0,-10.000000000000044,-10.000000000000044,-0.0,-0.0,-10.000000000000044,90.0000000000004,120.00000000000054,90.0000000000004,40.00000000000018,-30.000000000000135,-40.00000000000018
-0.0,-10.000000000000044,-10.000000000000044,-0.0,-0.0,-10.000000000000044,100.00000000000044,120.00000000000054,100.00000000000044,50.00000000000022,-20.00000000000009,-40.00000000000018
-0.0,-10.000000000000044,-10.000000000000044,-0.0,-0.0,-10.000000000000044,100.00000000000044,130.00000000000057,110.00000000000048,50.00000000000022,-10.000000000000044,-30.000000000000135
-0.0,-10.000000000000044,-0.0,-0.0,-0.0,-0.0,110.00000000000048,140.00000000000063,120.00000000000054,60.00000000000027,-10.000000000000044,-30.000000000000135
-0.0,-10.000000000000044,-0.0,-0.0,-0.0,-0.0,110.00000000000048,150.00000000000065,120.00000000000054,60.00000000000027,-10.000000000000044,-30.000000000000135
-0.0,-0.0,-0.0,-0.0,-0.0,-0.0,110.00000000000048,150.00000000000065,120.00000000000054,60.00000000000027,-10.000000000000044,-30.000000000000135
-0.0,-0.0,-0.0,-0.0,-0.0,-0.0,120.00000000000054,150.00000000000065,120.00000000000054,60.00000000000027,-10.000000000000044,-30.000000000000135
-0.0,-0.0,-0.0,-0.0,-0.0,-0.0,120.00000000000054,150.00000000000065,130.00000000000057,70.00000000000031,-10.000000000000044,-30.000000000000135
-0.0,-0.0,-0.0,-10.000000000000044,-0.0,-0.0,120.00000000000054,150.00000000000065,130.00000000000057,70.00000000000031,-10.000000000000044,-30.000000000000135
10.000000000000044,10.000000000000044,-0.0,-20.00000000000009,-0.0,-0.0,120.00000000000054,160.0000000000007,140.00000000000063,80.00000000000036,-10.000000000000044,-30.000000000000135
20.00000000000009,10.000000000000044,-0.0,-30.000000000000135,-0.0,10.000000000000044,130.00000000000057,160.0000000000007,140.00000000000063,80.00000000000036,-0.0,-20.00000000000009
20.00000000000009,30.000000000000135,20.00000000000009,-30.000000000000135,-0.0,30.000000000000135,130.00000000000057,170.00000000000077,150.00000000000065,80.00000000000036,-0.0,-20.00000000000009
20.00000000000009,40.00000000000018,20.00000000000009,-40.00000000000018,-0.0,40.00000000000018,130.00000000000057,170.00000000000077,160.0000000000007,90.0000000000004,-0.0,-20.00000000000009
20.00000000000009,50.00000000000022,30.000000000000135,-40.00000000000018,-0.0,50.00000000000022,130.00000000000057,180.0000000000008,170.00000000000077,100.00000000000044,-0.0,-20.00000000000009
20.00000000000009,60.00000000000027,40.00000000000018,-50.00000000000022,-10.000000000000044,60.00000000000027,140.00000000000063,190.00000000000085,170.00000000000077,100.00000000000044,-0.0,-20.00000000000009
20.00000000000009,70.00000000000031,50.00000000000022,-50.00000000000022,-10.000000000000044,60.00000000000027,140.00000000000063,200.00000000000088,180.0000000000008,110.00000000000048,-0.0,-20.00000000000009
30.000000000000135,80.00000000000036,50.00000000000022,-70.00000000000031,-0.0,70.00000000000031,150.00000000000065,210.00000000000094,190.00000000000085,110.00000000000048,10.000000000000044,-10.000000000000044
40.00000000000018,90.0000000000004,50.00000000000022,-80.00000000000036,-0.0,80.00000000000036,150.00000000000065,220.00000000000097,190.00000000000085,120.00000000000054,10.000000000000044,-10.000000000000044
50.00000000000022,100.00000000000044,60.00000000000027,-90.0000000000004,-0.0,90.0000000000004,160.0000000000007,220.00000000000097,200.00000000000088,120.00000000000054,10.000000000000044,-10.000000000000044
60.00000000000027,110.00000000000048,60.00000000000027,-100.00000000000044,-0.0,100.00000000000044,160.0000000000007,230.00000000000102,220.00000000000097,140.00000000000063,20.00000000000009,-0.0
70.00000000000031,130.00000000000057,60.00000000000027,-100.00000000000044,-0.0,100.00000000000044,170.00000000000077,250.0000000000011,230.00000000000102,150.00000000000065,30.000000000000135,-0.0
60.00000000000027,130.00000000000057,70.00000000000031,-100.00000000000044,-0.0,100.00000000000044,170.00000000000077,260.00000000000114,240.00000000000108,170.00000000000077,40.00000000000018,-0.0
60.00000000000027,130.00000000000057,70.00000000000031,-90.0000000000004,-0.0,100.00000000000044,180.0000000000008,280.00000000000125,260.00000000000114,190.00000000000085,50.00000000000022,10.000000000000044
60.00000000000027,130.00000000000057,60.00000000000027,-90.0000000000004,-0.0,90.0000000000004,180.0000000000008,290.0000000000013,270.0000000000012,200.00000000000088,60.00000000000027,30.000000000000135
50.00000000000022,120.00000000000054,60.00000000000027,-90.0000000000004,-0.0,90.0000000000004,190.00000000000085,310.00000000000136,280.00000000000125,200.00000000000088,70.00000000000031,30.000000000000135
50.00000000000022,120.00000000000054,60.00000000000027,-90.0000000000004,-0.0,90.0000000000004,190.00000000000085,310.00000000000136,290.0000000000013,210.00000000000094,80.00000000000036,40.00000000000018
60.00000000000027,110.00000000000048,40.00000000000018,-90.0000000000004,-0.0,80.00000000000036,190.00000000000085,320.0000000000014,300.0000000000013,220.00000000000097,90.0000000000004,50.00000000000022
60.00000000000027,110.00000000000048,30.000000000000135,-90.0000000000004,10.000000000000044,70.00000000000031,200.00000000000088,330.0000000000015,310.00000000000136,230.00000000000102,100.00000000000044,60.00000000000027
70.00000000000031,100.00000000000044,20.00000000000009,-80.00000000000036,10.000000000000044,60.00000000000027,200.00000000000088,330.0000000000015,310.00000000000136,240.00000000000108,100.00000000000044,70.00000000000031
60.00000000000027,90.0000000000004,10.000000000000044,-70.00000000000031,20.00000000000009,40.00000000000018,210.00000000000094,330.0000000000015,310.00000000000136,240.00000000000108,110.00000000000048,70.00000000000031
50.00000000000022,70.00000000000031,-0.0,-60.00000000000027,10.000000000000044,30.000000000000135,210.00000000000094,330.0000000000015,320.0000000000014,250.0000000000011,120.00000000000054,80.00000000000036
30.000000000000135,60.00000000000027,-0.0,-40.00000000000018,10.000000000000044,20.00000000000009,200.00000000000088,330.0000000000015,320.0000000000014,250.0000000000011,130.00000000000057,90.0000000000004
10.000000000000044,40.00000000000018,-0.0,-20.00000000000009,-0.0,10.000000000000044,200.00000000000088,330.0000000000015,310.00000000000136,250.0000000000011,140.00000000000063,100.00000000000044
10.000000000000044,20.00000000000009,-0.0,-10.000000000000044,-0.0,-0.0,190.00000000000085,320.0000000000014,310.00000000000136,260.00000000000114,150.00000000000065,100.00000000000044
10.000000000000044,10.000000000000044,-10.000000000000044,-10.000000000000044,-0.0,-0.0,190.00000000000085,320.0000000000014,310.00000000000136,260.00000000000114,160.0000000000007,120.00000000000054
20.00000000000009,-0.0,-10.000000000000044,-10.000000000000044,10.000000000000044,-0.0,180.0000000000008,310.00000000000136,290.0000000000013,250.0000000000011,170.00000000000077,130.00000000000057
20.00000000000009,-0.0,-20.00000000000009,-0.0,20.00000000000009,-10.000000000000044,170.00000000000077,290.0000000000013,270.0000000000012,240.00000000000108,170.00000000000077,140.00000000000063
20.00000000000009,-0.0,-40.00000000000018,-10.000000000000044,30.000000000000135,-20.00000000000009,150.00000000000065,260.00000000000114,250.0000000000011,230.00000000000102,180.0000000000008,140.00000000000063
20.00000000000009,-0.0,-40.00000000000018,-10.000000000000044,30.000000000000135,-20.00000000000009,130.00000000000057,240.00000000000108,230.00000000000102,210.00000000000094,180.0000000000008,140.00000000000063
-0.0,-10.000000000000044,-30.000000000000135,-0.0,10.000000000000044,-20.00000000000009,110.00000000000048,210.00000000000094,210.00000000000094,200.00000000000088,170.00000000000077,150.00000000000065
-0.0,-20.00000000000009,-30.000000000000135,-0.0,10.000000000000044,-20.00000000000009,100.00000000000044,190.00000000000085,180.0000000000008,180.0000000000008,170.00000000000077,150.00000000000065
-0.0,-20.00000000000009,-30.000000000000135,-0.0,20.00000000000009,-30.000000000000135,90.0000000000004,160.0000000000007,160.0000000000007,160.0000000000007,170.00000000000077,150.00000000000065
-0.0,-20.00000000000009,-30.000000000000135,-0.0,10.000000000000044,-20.00000000000009,70.00000000000031,140.00000000000063,140.00000000000063,140.00000000000063,160.0000000000007,150.00000000000065
-0.0,-20.00000000000009,-30.000000000000135,-0.0,10.000000000000044,-20.00000000000009,60.00000000000027,120.00000000000054,110.00000000000048,120.00000000000054,150.00000000000065,140.00000000000063
-0.0,-20.00000000000009,-30.000000000000135,-0.0,20.00000000000009,-30.000000000000135,50.00000000000022,100.00000000000044,90.0000000000004,100.00000000000044,130.00000000000057,130.00000000000057
-0.0,-20.00000000000009,-30.000000000000135,-0.0,10.000000000000044,-20.00000000000009,40.00000000000018,70.00000000000031,70.00000000000031,80.00000000000036,120.00000000000054,120.00000000000054
-0.0,-20.00000000000009,-20.00000000000009,10.000000000000044,-0.0,-20.00000000000009,30.000000000000135,50.00000000000022,50.00000000000022,60.00000000000027,100.00000000000044,100.00000000000044
-0.0,-20.00000000000009,-10.000000000000044,10.000000000000044,-0.0,-20.00000000000009,20.00000000000009,40.00000000000018,30.000000000000135,40.00000000000018,90.0000000000004,90.0000000000004
-10.000000000000044,-20.00000000000009,-10.000000000000044,10.000000000000044,-0.0,-10.000000000000044,10.000000000000044,20.00000000000009,10.000000000000044,20.00000000000009,70.00000000000031,80.00000000000036
-10.000000000000044,-20.00000000000009,-0.0,10.000000000000044,-0.0,-10.000000000000044,-0.0,10.000000000000044,-0.0,10.000000000000044,60.00000000000027,70.00000000000031
-10.000000000000044,-20.00000000000009,-0.0,10.000000000000044,-0.0,-0.0,-0.0,-0.0,-0.0,-0.0,40.00000000000018,50.00000000000022
-0.0,-10.000000000000044,-0.0,-0.0,-0.0,-0.0,-0.0,-0.0,-10.000000000000044,-10.000000000000044,30.000000000000135,40.00000000000018
-0.0,-10.000000000000044,-0.0,-0.0,-0.0,-0.0,-0.0,-10.000000000000044,-20.00000000000009,-20.00000000000009,20.00000000000009,30.000000000000135
-0.0,-10.000000000000044,-10.000000000000044,-0.0,-0.0,-10.000000000000044,-10.000000000000044,-20.00000000000009,-20.00000000000009,-20.00000000000009,10.000000000000044,30.000000000000135
-0.0,-0.0,-10.000000000000044,-0.0,-0.0,-0.0,-10.000000000000044,-20.00000000000009,-30.000000000000135,-30.000000000000135,10.000000000000044,20.00000000000009
-0.0,-0.0,-10.000000000000044,-0.0,-0.0,-0.0,-10.000000000000044,-30.000000000000135,-40.00000000000018,-30.000000000000135,-0.0,20.00000000000009
-0.0,-0.0,-0.0,-0.0,-0.0,-0.0,-10.000000000000044,-30.000000000000135,-40.00000000000018,-40.00000000000018,-0.0,20.00000000000009
-0.0,-0.0,-0.0,-0.0,-0.0,-0.0,-10.000000000000044,-40.00000000000018,-50.00000000000022,-50.00000000000022,-0.0,10.000000000000044
-0.0,-0.0,-0.0,-0.0,-0.0,-0.0,-20.00000000000009,-40.00000000000018,-50.00000000000022,-50.00000000000022,-0.0,-0.0
-0.0,-0.0,-0.0,-0.0,-0.0,-0.0,-20.00000000000009,-40.00000000000018,-60.00000000000027,-50.00000000000022,-0.0,10.000000000000044
-0.0,-0.0,-0.0,-0.0,-0.0,-0.0,-20.00000000000009,-50.00000000000022,-60.00000000000027,-50.00000000000022,-0.0,-0.0
-0.0,-0.0,-0.0,-0.0,-0.0,-0.0,-20.00000000000009,-60.00000000000027,-60.00000000000027,-50.00000000000022,-10.000000000000044,-0.0
-0.0,-0.0,-0.0,-0.0,-0.0,-0.0,-20.00000000000009,-60.00000000000027,-50.00000000000022,-50.00000000000022,-10.000000000000044,-0.0
-0.0,-0.0,-0.0,-10.000000000000044,-0.0,-0.0,-20.00000000000009,-50.00000000000022,-50.00000000000022,-50.00000000000022,-0.0,-0.0
10.000000000000044,-0.0,-0.0,-10.000000000000044,-0.0,-0.0,-20.00000000000009,-50.00000000000022,-50.00000000000022,-50.00000000000022,-0.0,-0.0
10.000000000000044,-0.0,-0.0,-10.000000000000044,10.000000000000044,-0.0,-20.00000000000009,-50.00000000000022,-50.00000000000022,-50.00000000000022,-10.000000000000044,-0.0
20.00000000000009,-0.0,-10.000000000000044,-10.000000000000044,10.000000000000044,-0.0,-20.00000000000009,-40.00000000000018,-50.00000000000022,-40.00000000000018,-10.000000000000044,-0.0
-0.0,10.000000000000044,-10.000000000000044,-0.0,-0.0,-0.0,-20.00000000000009,-50.00000000000022,-50.00000000000022,-40.00000000000018,-10.000000000000044,-0.0
-0.0,-0.0,-10.000000000000044,-0.0,-0.0,-10.000000000000044,-20.00000000000009,-50.00000000000022,-40.00000000000018,-40.00000000000018,-10.000000000000044,-0.0
-0.0,-10.000000000000044,-0.0,-0.0,-0.0,-0.0,-20.00000000000009,-40.00000000000018,-40.00000000000018,-40.00000000000018,-10.000000000000044,-0.0
-10.000000000000044,-10.000000000000044,-0.0,10.000000000000044,-0.0,-10.000000000000044,-20.00000000000009,-40.00000000000018,-40.00000000000018,-40.00000000000018,-10.000000000000044,-0.0
-10.000000000000044,-20.00000000000009,-10.000000000000044,20.00000000000009,-0.0,-20.00000000000009,-10.000000000000044,-40.00000000000018,-30.000000000000135,-30.000000000000135,-10.000000000000044,-0.0
-10.000000000000044,-20.00000000000009,-10.000000000000044,10.000000000000044,-0.0,-20.00000000000009,-10.000000000000044,-30.000000000000135,-20.00000000000009,-30.000000000000135,-10.000000000000044,-0.0
-10.000000000000044,-20.00000000000009,-10.000000000000044,10.000000000000044,-0.0,-20.00000000000009,-0.0,-20.00000000000009,-20.00000000000009,-30.000000000000135,-10.000000000000044,-0.0
-20.00000000000009,-30.000000000000135,-20.00000000000009,20.00000000000009,-0.0,-30.000000000000135,-10.000000000000044,-20.00000000000009,-20.00000000000009,-30.000000000000135,-10.000000000000044,-0.0
-20.00000000000009,-40.00000000000018,-20.00000000000009,30.000000000000135,-0.0,-30.000000000000135,-0.0,-20.00000000000009,-20.00000000000009,-30.000000000000135,-10.000000000000044,-0.0
-10.000000000000044,-40.00000000000018,-30.000000000000135,30.000000000000135,-0.0,-40.00000000000018,-0.0,-20.00000000000009,-10.000000000000044,-20.00000000000009,-10.000000000000044,-0.0
-10.000000000000044,-50.00000000000022,-30.000000000000135,30.000000000000135,-0.0,-40.00000000000018,-0.0,-10.000000000000044,-10.000000000000044,-20.00000000000009,-10.000000000000044,-0.0
-10.000000000000044,-50.00000000000022,-30.000000000000135,30.000000000000135,-0.0,-40.00000000000018,-0.0,-10.000000000000044,-10.000000000000044,-20.00000000000009,-10.000000000000044,-0.0
-10.000000000000044,-50.00000000000022,-30.000000000000135,20.00000000000009,10.000000000000044,-40.00000000000018,-0.0,-10.000000000000044,-10.000000000000044,-10.000000000000044,-10.000000000000044,-0.0
-10.000000000000044,-40.00000000000018,-30.000000000000135,20.00000000000009,-0.0,-30.000000000000135,-0.0,-10.000000000000044,-10.000000000000044,-10.000000000000044,-10.000000000000044,-0.0
-20.00000000000009,-40.00000000000018,-20.00000000000009,20.00000000000009,-0.0,-30.000000000000135,-0.0,-10.000000000000044,-0.0,-10.000000000000044,-10.000000000000044,-10.000000000000044
-20.00000000000009,-40.00000000000018,-10.000000000000044,30.000000000000135,-0.0,-20.00000000000009,-0.0,-0.0,-10.000000000000044,-10.000000000000044,-20.00000000000009,-10.000000000000044
-20.00000000000009,-30.000000000000135,-10.000000000000044,30.000000000000135,-0.0,-20.00000000000009,-0.0,-0.0,-0.0,-10.000000000000044,-20.00000000000009,-20.00000000000009
-20.00000000000009,-40.00000000000018,-10.000000000000044,30.000000000000135,-0.0,-20.00000000000009,-0.0,-0.0,-0.0,-10.000000000000044,-10.000000000000044,-20.00000000000009
-20.00000000000009,-40.00000000000018,-10.000000000000044,20.00000000000009,-0.0,-20.00000000000009,-0.0,-0.0,-0.0,-10.000000000000044,-20.00000000000009,-20.00000000000009
-10.000000000000044,-30.000000000000135,-10.000000000000044,10.000000000000044,-0.0,-20.00000000000009,-0.0,-0.0,-0.0,-0.0,-20.00000000000009,-20.00000000000009
-0.0,-20.00000000000009,-10.000000000000044,10.000000000000044,-0.0,-10.000000000000044,-0.0,-0.0,-0.0,-0.0,-10.000000000000044,-10.000000000000044
-0.0,-20.00000000000009,-0.0,-0.0,-0.0,-0.0,-0.0,-0.0,-0.0,-0.0,-0.0,-10.000000000000044
-0.0,-10.000000000000044,-0.0,-0.0,-0.0,-0.0,-0.0,-0.0,-0.0,-0.0,-0.0,-10.000000000000044
-0.0,-0.0,10.000000000000044,-10.000000000000044,-0.0,10.000000000000044,-0.0,-0.0,10.000000000000044,10.000000000000044,-0.0,-0.0
-0.0,10.000000000000044,20.00000000000009,-20.00000000000009,-10.000000000000044,30.000000000000135,-0.0,-0.0,10.000000000000044,-0.0,-0.0,-0.0
-0.0,30.000000000000135,40.00000000000018,-30.000000000000135,-10.000000000000044,40.00000000000018,-0.0,-0.0,10.000000000000044,-0.0,-0.0,-0.0
-0.0,50.00000000000022,40.00000000000018,-30.000000000000135,-20.00000000000009,50.00000000000022,-0.0,-0.0,10.000000000000044,-0.0,-0.0,-0.0
-0.0,50.00000000000022,50.00000000000022,-30.000000000000135,-30.000000000000135,60.00000000000027,-0.0,-0.0,-0.0,-0.0,-0.0,-0.0
-0.0,60.00000000000027,60.00000000000027,-30.000000000000135,-30.000000000000135,60.00000000000027,-0.0,-0.0,-0.0,-0.0,-0.0,-0.0
-0.0,70.00000000000031,70.00000000000031,-30.000000000000135,-30.000000000000135,70.00000000000031,-0.0,-0.0,-0.0,-0.0,-0.0,-0.0
-0.0,70.00000000000031,60.00000000000027,-30.000000000000135,-30.000000000000135,60.00000000000027,-0.0,-0.0,-0.0,-0.0,-0.0,-0.0
-0.0,70.00000000000031,60.00000000000027,-40.00000000000018,-30.000000000000135,70.00000000000031,-0.0,-0.0,-0.0,-0.0,-0.0,-0.0
-0.0,70.00000000000031,60.00000000000027,-40.00000000000018,-20.00000000000009,60.00000000000027,-0.0,-0.0,-0.0,-0.0,-0.0,-0.0
10.000000000000044,70.00000000000031,50.00000000000022,-40.00000000000018,-20.00000000000009,60.00000000000027,-0.0,-0.0,-0.0,-0.0,-0.0,-0.0
10.000000000000044,70.00000000000031,50.00000000000022,-40.00000000000018,-10.000000000000044,60.00000000000027,-0.0,-0.0,-0.0,-0.0,-0.0,-0.0
10.000000000000044,70.00000000000031,50.00000000000022,-40.00000000000018,-10.000000000000044,60.00000000000027,-0.0,-0.0,-0.0,-0.0,-0.0,-0.0
20.00000000000009,70.00000000000031,40.00000000000018,-40.00000000000018,-10.000000000000044,50.00000000000022,-0.0,-0.0,-0.0,10.000000000000044,-0.0,-0.0
10.000000000000044,60.00000000000027,30.000000000000135,-30.000000000000135,-0.0,40.00000000000018,-0.0,-0.0,10.000000000000044,20.00000000000009,-0.0,-0.0
-0.0,50.00000000000022,20.00000000000009,-20.00000000000009,-0.0,30.000000000000135,-0.0,-0.0,20.00000000000009,20.00000000000009,10.000000000000044,-0.0
-0.0,30.000000000000135,10.000000000000044,-10.000000000000044,-0.0,10.000000000000044,-0.0,10.000000000000044,20.00000000000009,30.000000000000135,10.000000000000044,10.000000000000044
-0.0,10.000000000000044,-0.0,-0.0,-0.0,-0.0,10.000000000000044,20.00000000000009,30.000000000000135,30.000000000000135,20.00000000000009,20.00000000000009
-10.000000000000044,-0.0,-0.0,10.000000000000044,-0.0,-0.0,-0.0,20.00000000000009,20.00000000000009,30.000000000000135,30.000000000000135,20.00000000000009
-20.00000000000009,-10.000000000000044,-10.000000000000044,20.00000000000009,-0.0,-20.00000000000009,-0.0,10.000000000000044,10.000000000000044,20.00000000000009,30.000000000000135,20.00000000000009
-20.00000000000009,-30.000000000000135,-10.000000000000044,30.000000000000135,-0.0,-30.000000000000135,-0.0,-0.0,-0.0,20.00000000000009,20.00000000000009,30.000000000000135
-20.00000000000009,-40.00000000000018,-20.00000000000009,30.000000000000135,-0.0,-30.000000000000135,-20.00000000000009,-0.0,-0.0,10.000000000000044,30.000000000000135,30.000000000000135
-20.00000000000009,-50.00000000000022,-30.000000000000135,30.000000000000135,-0.0,-40.00000000000018,-30.000000000000135,-20.00000000000009,-10.000000000000044,10.000000000000044,30.000000000000135,30.000000000000135
-20.00000000000009,-50.00000000000022,-30.000000000000135,40.00000000000018,-0.0,-40.00000000000018,-40.00000000000018,-20.00000000000009,-0.0,10.000000000000044,20.00000000000009,30.000000000000135
-20.00000000000009,-50.00000000000022,-20.00000000000009,40.00000000000018,-0.0,-40.00000000000018,-50.00000000000022,-30.000000000000135,-0.0,20.00000000000009,30.000000000000135,40.00000000000018
-20.00000000000009,-50.00000000000022,-30.000000000000135,40.00000000000018,-0.0,-40.00000000000018,-50.00000000000022,-20.00000000000009,-0.0,20.00000000000009,40.00000000000018,50.00000000000022
-30.000000000000135,-60.00000000000027,-30.000000000000135,40.00000000000018,-0.0,-40.00000000000018,-50.00000000000022,-10.000000000000044,10.000000000000044,30.000000000000135,40.00000000000018,50.00000000000022
-30.000000000000135,-60.00000000000027,-20.00000000000009,40.00000000000018,-0.0,-40.00000000000018,-50.00000000000022,-0.0,10.000000000000044,40.00000000000018,50.00000000000022,60.00000000000027
-30.000000000000135,-60.00000000000027,-30.000000000000135,50.00000000000022,-0.0,-40.00000000000018,-50.00000000000022,-0.0,-0.0,30.000000000000135,50.00000000000022,60.00000000000027
-40.00000000000018,-60.00000000000027,-30.000000000000135,50.00000000000022,-0.0,-50.00000000000022,-40.00000000000018,-0.0,-0.0,20.00000000000009,50.00000000000022,60.00000000000027
-50.00000000000022,-70.00000000000031,-20.00000000000009,60.00000000000027,-10.000000000000044,-50.00000000000022,-40.00000000000018,-10.000000000000044,-0.0,20.00000000000009,50.00000000000022,50.00000000000022
-50.00000000000022,-70.00000000000031,-20.00000000000009,60.00000000000027,-10.000000000000044,-50.00000000000022,-40.00000000000018,-10.000000000000044,-0.0,10.000000000000044,40.00000000000018,50.00000000000022
-50.00000000000022,-80.00000000000036,-20.00000000000009,70.00000000000031,-10.000000000000044,-50.00000000000022,-30.000000000000135,-10.000000000000044,-10.000000000000044,-0.0,30.000000000000135,40.00000000000018
-50.00000000000022,-80.00000000000036,-20.00000000000009,60.00000000000027,-10.000000000000044,-50.00000000000022,-30.000000000000135,-10.000000000000044,-10.000000000000044,-0.0,20.00000000000009,30.000000000000135
-40.00000000000018,-80.00000000000036,-20.00000000000009,50.00000000000022,-0.0,-50.00000000000022,-20.00000000000009,-10.000000000000044,-20.00000000000009,-10.000000000000044,10.000000000000044,20.00000000000009
-30.000000000000135,-70.00000000000031,-30.000000000000135,50.00000000000022,-0.0,-50.00000000000022,-20.00000000000009,-10.000000000000044,-30.000000000000135,-20.00000000000009,-0.0,10.000000000000044
-30.000000000000135,-60.00000000000027,-40.00000000000018,40.00000000000018,-0.0,-50.00000000000022,-20.00000000000009,-20.00000000000009,-30.000000000000135,-20.00000000000009,-0.0,-0.0
-30.000000000000135,-70.00000000000031,-50.00000000000022,50.00000000000022,-0.0,-60.00000000000027,-10.000000000000044,-20.00000000000009,-30.000000000000135,-30.000000000000135,-0.0,-0.0
-40.00000000000018,-80.00000000000036,-60.00000000000027,60.00000000000027,-0.0,-80.00000000000036,-10.000000000000044,-20.00000000000009,-30.000000000000135,-30.000000000000135,-0.0,-0.0
-50.00000000000022,-100.00000000000044,-80.00000000000036,80.00000000000036,-0.0,-100.00000000000044,-10.000000000000044,-20.00000000000009,-30.000000000000135,-30.000000000000135,-0.0,-0.0
-50.00000000000022,-130.00000000000057,-100.00000000000044,100.00000000000044,20.00000000000009,-130.00000000000057,-10.000000000000044,-20.00000000000009,-30.000000000000135,-30.000000000000135,-0.0,-0.0
-30.000000000000135,-160.0000000000007,-130.00000000000057,90.0000000000004,40.00000000000018,-150.00000000000065,-10.000000000000044,-20.00000000000009,-30.000000000000135,-30.000000000000135,-0.0,-0.0
10.000000000000044,-170.00000000000077,-160.0000000000007,50.00000000000022,80.00000000000036,-150.00000000000065,-10.000000000000044,-30.000000000000135,-30.000000000000135,-30.000000000000135,-0.0,-0.0
100.00000000000044,-140.00000000000063,-180.0000000000008,-30.000000000000135,130.00000000000057,-120.00000000000054,-10.000000000000044,-30.000000000000135,-30.000000000000135,-30.000000000000135,-0.0,-0.0
220.00000000000097,-70.00000000000031,-170.00000000000077,-140.00000000000063,190.00000000000085,-60.00000000000027,-10.000000000000044,-20.00000000000009,-30.000000000000135,-30.000000000000135,-0.0,-0.0
350.00000000000153,50.00000000000022,-130.00000000000057,-290.0000000000013,240.00000000000108,40.00000000000018,-10.000000000000044,-20.00000000000009,-30.000000000000135,-20.00000000000009,-0.0,-0.0
470.0000000000021,220.00000000000097,-60.00000000000027,-450.000000000002,270.0000000000012,170.00000000000077,-20.00000000000009,-20.00000000000009,-20.00000000000009,-20.00000000000009,-0.0,-0.0
540.0000000000024,410.0000000000018,20.00000000000009,-560.0000000000025,260.00000000000114,280.00000000000125,-20.00000000000009,-20.00000000000009,-20.00000000000009,-20.00000000000009,10.000000000000044,-0.0
550.0000000000024,560.0000000000025,80.00000000000036,-600.0000000000026,220.00000000000097,360.0000000000016,-20.00000000000009,-20.00000000000009,-20.00000000000009,-20.00000000000009,20.00000000000009,-0.0
500.0000000000022,630.0000000000028,140.00000000000063,-570.0000000000025,170.00000000000077,390.0000000000017,-20.00000000000009,-20.00000000000009,-20.00000000000009,-20.00000000000009,10.000000000000044,-0.0
410.0000000000018,650.0000000000028,180.0000000000008,-500.0000000000022,100.00000000000044,380.0000000000017,-20.00000000000009,-30.000000000000135,-20.00000000000009,-20.00000000000009,-0.0,10.000000000000044
300.0000000000013,590.0000000000026,170.00000000000077,-390.0000000000017,50.00000000000022,320.0000000000014,-20.00000000000009,-30.000000000000135,-20.00000000000009,-20.00000000000009,-0.0,30.000000000000135
210.00000000000094,480.00000000000216,140.00000000000063,-290.0000000000013,20.00000000000009,250.0000000000011,-10.000000000000044,-20.00000000000009,-10.000000000000044,-20.00000000000009,-0.0,10.000000000000044
130.00000000000057,360.0000000000016,120.00000000000054,-200.00000000000088,-0.0,190.00000000000085,-0.0,-10.000000000000044,10.000000000000044,-20.00000000000009,-20.00000000000009,-10.000000000000044
60.00000000000027,260.00000000000114,100.00000000000044,-130.00000000000057,-20.00000000000009,140.00000000000063,20.00000000000009,10.000000000000044,60.00000000000027,10.000000000000044,-30.000000000000135,-30.000000000000135
20.00000000000009,180.0000000000008,90.0000000000004,-70.00000000000031,-40.00000000000018,100.00000000000044,50.00000000000022,60.00000000000027,140.00000000000063,70.00000000000031,-40.00000000000018,-60.00000000000027
-10.000000000000044,110.00000000000048,80.00000000000036,-30.000000000000135,-50.00000000000022,70.00000000000031,90.0000000000004,140.00000000000063,260.00000000000114,200.00000000000088,-30.000000000000135,-80.00000000000036
-30.000000000000135,60.00000000000027,70.00000000000031,-0.0,-50.00000000000022,50.00000000000022,110.00000000000048,220.00000000000097,410.0000000000018,400.00000000000176,20.00000000000009,-50.00000000000022
-40.00000000000018,30.000000000000135,50.00000000000022,-0.0,-50.00000000000022,30.000000000000135,80.00000000000036,290.0000000000013,560.0000000000025,650.0000000000028,150.00000000000065,30.000000000000135
-30.000000000000135,10.000000000000044,30.000000000000135,10.000000000000044,-40.00000000000018,10.000000000000044,-20.00000000000009,310.00000000000136,660.000000000003,880.0000000000039,360.0000000000016,170.00000000000077
-20.00000000000009,-0.0,10.000000000000044,10.000000000000044,-20.00000000000009,-0.0,-210.00000000000094,230.00000000000102,620.0000000000027,1010.0000000000044,600.0000000000026,370.00000000000165
-20.00000000000009,-10.000000000000044,10.000000000000044,10.000000000000044,-20.00000000000009,-0.0,-480.00000000000216,50.00000000000022,410.0000000000018,930.0000000000041,830.0000000000036,600.0000000000026
-20.00000000000009,-10.000000000000044,-0.0,20.00000000000009,-20.00000000000009,-0.0,-810.0000000000036,-240.00000000000108,60.00000000000027,650.0000000000028,970.0000000000043,780.0000000000034
-20.00000000000009,-10.000000000000044,-0.0,20.00000000000009,-10.000000000000044,-10.000000000000044,-1110.000000000005,-580.0000000000026,-350.00000000000153,210.00000000000094,950.0000000000042,870.0000000000039
-30.000000000000135,-30.000000000000135,-0.0,30.000000000000135,-0.0,-20.00000000000009,-1310.000000000006,-910.0000000000041,-750.0000000000033,-260.00000000000114,780.0000000000034,830.0000000000036
-30.000000000000135,-40.00000000000018,-10.000000000000044,30.000000000000135,-0.0,-30.000000000000135,-1400.0000000000061,-1160.0000000000052,-1040.0000000000045,-660.000000000003,520.0000000000023,710.0000000000032
-20.00000000000009,-40.00000000000018,-20.00000000000009,30.000000000000135,-0.0,-30.000000000000135,-1330.000000000006,-1280.0000000000057,-1130.000000000005,-870.0000000000039,230.00000000000102,530.0000000000024
-30.000000000000135,-50.00000000000022,-20.00000000000009,40.00000000000018,-0.0,-30.000000000000135,-1150.000000000005,-1210.0000000000055,-1000.0000000000044,-850.0000000000038,-0.0,340.00000000000153
-30.000000000000135,-50.00000000000022,-20.00000000000009,40.00000000000018,-0.0,-30.000000000000135,-920.0000000000041,-1030.0000000000045,-790.0000000000035,-710.0000000000032,-130.00000000000057,170.00000000000077
-30.000000000000135,-50.00000000000022,-10.000000000000044,40.00000000000018,-10.000000000000044,-30.000000000000135,-690.0000000000031,-790.0000000000035,-550.0000000000024,-520.0000000000023,-190.00000000000085,60.00000000000027
-30.000000000000135,-50.00000000000022,-10.000000000000044,40.00000000000018,-10.000000000000044,-30.000000000000135,-480.00000000000216,-550.0000000000024,-350.00000000000153,-360.0000000000016,-200.00000000000088,-10.000000000000044
-30.000000000000135,-50.00000000000022,-20.00000000000009,30.000000000000135,-0.0,-30.000000000000135,-320.0000000000014,-360.0000000000016,-230.00000000000102,-270.0000000000012,-190.00000000000085,-50.00000000000022
-10.000000000000044,-50.00000000000022,-20.00000000000009,20.00000000000009,-0.0,-30.000000000000135,-210.00000000000094,-230.00000000000102,-180.0000000000008,-220.00000000000097,-180.0000000000008,-80.00000000000036
-0.0,-40.00000000000018,-20.00000000000009,10.000000000000044,-0.0,-30.000000000000135,-120.00000000000054,-150.00000000000065,-140.00000000000063,-200.00000000000088,-170.00000000000077,-90.0000000000004
-0.0,-30.000000000000135,-20.00000000000009,10.000000000000044,-0.0,-20.00000000000009,-60.00000000000027,-100.00000000000044,-100.00000000000044,-170.00000000000077,-160.0000000000007,-90.0000000000004
-0.0,-30.000000000000135,-20.00000000000009,10.000000000000044,-0.0,-20.00000000000009,-20.00000000000009,-50.00000000000022,-60.00000000000027,-130.00000000000057,-140.00000000000063,-90.0000000000004
-20.00000000000009,-30.000000000000135,-10.000000000000044,20.00000000000009,-0.0,-20.00000000000009,-0.0,-10.000000000000044,-30.000000000000135,-100.00000000000044,-120.00000000000054,-80.00000000000036
-40.00000000000018,-20.00000000000009,-0.0,30.000000000000135,-20.00000000000009,-10.000000000000044,10.000000000000044,10.000000000000044,-10.000000000000044,-80.00000000000036,-100.00000000000044,-70.00000000000031
-40.00000000000018,-30.000000000000135,-0.0,40.00000000000018,-20.00000000000009,-20.00000000000009,30.000000000000135,30.000000000000135,-0.0,-70.00000000000031,-90.0000000000004,-70.00000000000031
-40.00000000000018,-40.00000000000018,-0.0,40.00000000000018,-10.000000000000044,-20.00000000000009,40.00000000000018,40.00000000000018,-0.0,-70.00000000000031,-90.0000000000004,-70.00000000000031
-50.00000000000022,-50.00000000000022,-0.0,40.00000000000018,-20.00000000000009,-20.00000000000009,60.00000000000027,50.00000000000022,-0.0,-60.00000000000027,-90.0000000000004,-70.00000000000031
-50.00000000000022,-50.00000000000022,-10.000000000000044,50.00000000000022,-10.000000000000044,-30.000000000000135,70.00000000000031,60.00000000000027,10.000000000000044,-60.00000000000027,-90.0000000000004,-60.00000000000027
-30.000000000000135,-60.00000000000027,-20.00000000000009,40.00000000000018,-0.0,-40.00000000000018,80.00000000000036,70.00000000000031,20.00000000000009,-40.00000000000018,-80.00000000000036,-50.00000000000022
-20.00000000000009,-60.00000000000027,-30.000000000000135,40.00000000000018,-0.0,-40.00000000000018,80.00000000000036,80.00000000000036,40.00000000000018,-30.000000000000135,-70.00000000000031,-50.00000000000022
-20.00000000000009,-60.00000000000027,-30.000000000000135,40.00000000000018,-0.0,-40.00000000000018,90.0000000000004,100.00000000000044,40.00000000000018,-20.00000000000009,-50.00000000000022,-40.00000000000018
-20.00000000000009,-50.00000000000022,-30.000000000000135,30.000000000000135,-0.0,-40.00000000000018,100.00000000000044,110.00000000000048,50.00000000000022,-20.00000000000009,-40.00000000000018,-30.000000000000135
-10.000000000000044,-50.00000000000022,-40.00000000000018,30.000000000000135,-0.0,-40.00000000000018,100.00000000000044,120.00000000000054,60.00000000000027,-10.000000000000044,-40.00000000000018,-30.000000000000135
-20.00000000000009,-50.00000000000022,-30.000000000000135,30.000000000000135,-0.0,-40.00000000000018,100.00000000000044,120.00000000000054,60.00000000000027,-10.000000000000044,-30.000000000000135,-30.000000000000135
-20.00000000000009,-60.00000000000027,-30.000000000000135,30.000000000000135,-0.0,-40.00000000000018,110.00000000000048,130.00000000000057,60.00000000000027,-10.000000000000044,-30.000000000000135,-30.000000000000135
-10.000000000000044,-50.00000000000022,-30.000000000000135,30.000000000000135,-0.0,-40.00000000000018,110.00000000000048,130.00000000000057,70.00000000000031,-10.000000000000044,-20.00000000000009,-30.000000000000135
-10.000000000000044,-50.00000000000022,-30.000000000000135,30.000000000000135,-0.0,-40.00000000000018,120.00000000000054,140.00000000000063,70.00000000000031,-10.000000000000044,-20.00000000000009,-20.00000000000009
-10.000000000000044,-50.00000000000022,-30.000000000000135,30.000000000000135,-0.0,-40.00000000000018,130.00000000000057,150.00000000000065,70.00000000000031,-10.000000000000044,-10.000000000000044,-20.00000000000009
-10.000000000000044,-50.00000000000022,-30.000000000000135,20.00000000000009,10.000000000000044,-40.00000000000018,130.00000000000057,150.00000000000065,80.00000000000036,-10.000000000000044,-10.000000000000044,-20.00000000000009
-0.0,-40.00000000000018,-30.000000000000135,20.00000000000009,10.000000000000044,-30.000000000000135,130.00000000000057,160.0000000000007,80.00000000000036,-0.0,-0.0,-20.00000000000009
-0.0,-40.00000000000018,-30.000000000000135,20.00000000000009,10.000000000000044,-40.00000000000018,130.00000000000057,170.00000000000077,80.00000000000036,-0.0,-0.0,-20.00000000000009
-0.0,-40.00000000000018,-20.00000000000009,-0.0,10.000000000000044,-20.00000000000009,140.00000000000063,170.00000000000077,90.0000000000004,-0.0,-0.0,-20.00000000000009
-0.0,-30.000000000000135,-20.00000000000009,-0.0,10.000000000000044,-10.000000000000044,140.00000000000063,180.0000000000008,90.0000000000004,-0.0,-0.0,-30.000000000000135
-0.0,-10.000000000000044,-10.000000000000044,-0.0,-0.0,-10.000000000000044,140.00000000000063,180.0000000000008,100.00000000000044,-0.0,-0.0,-30.000000000000135
-0.0,-0.0,-0.0,-0.0,-0.0,-0.0,140.00000000000063,180.0000000000008,100.00000000000044,-0.0,-0.0,-30.000000000000135
10.000000000000044,-0.0,-0.0,-10.000000000000044,-0.0,-0.0,150.00000000000065,190.00000000000085,110.00000000000048,-0.0,-0.0,-30.000000000000135
-0.0,10.000000000000044,-0.0,-10.000000000000044,-0.0,-0.0,150.00000000000065,200.00000000000088,110.00000000000048,-0.0,-0.0,-30.000000000000135
-0.0,10.000000000000044,10.000000000000044,-0.0,-0.0,10.000000000000044,150.00000000000065,200.00000000000088,110.00000000000048,-0.0,-0.0,-30.000000000000135
-0.0,10.000000000000044,10.000000000000044,-10.000000000000044,-0.0,20.00000000000009,160.0000000000007,200.00000000000088,120.00000000000054,10.000000000000044,-0.0,-30.000000000000135
-0.0,20.00000000000009,10.000000000000044,-10.000000000000044,-0.0,20.00000000000009,160.0000000000007,210.00000000000094,130.00000000000057,20.00000000000009,-0.0,-30.000000000000135
-0.0,20.00000000000009,30.000000000000135,-10.000000000000044,-10.000000000000044,30.000000000000135,160.0000000000007,210.00000000000094,140.00000000000063,20.00000000000009,-0.0,-30.000000000000135
-0.0,30.000000000000135,30.000000000000135,-20.00000000000009,-10.000000000000044,30.000000000000135,160.0000000000007,220.00000000000097,140.00000000000063,20.00000000000009,-0.0,-40.00000000000018
20.00000000000009,40.00000000000018,30.000000000000135,-40.00000000000018,-0.0,40.00000000000018,170.00000000000077,230.00000000000102,150.00000000000065,20.00000000000009,-0.0,-40.00000000000018
20.00000000000009,50.00000000000022,40.00000000000018,-50.00000000000022,-0.0,50.00000000000022,170.00000000000077,240.00000000000108,150.00000000000065,20.00000000000009,-0.0,-40.00000000000018
30.000000000000135,70.00000000000031,50.00000000000022,-60.00000000000027,-0.0,60.00000000000027,180.0000000000008,250.0000000000011,160.0000000000007,20.00000000000009,-0.0,-40.00000000000018
40.00000000000018,80.00000000000036,50.00000000000022,-70.00000000000031,-0.0,70.00000000000031,180.0000000000008,250.0000000000011,160.0000000000007,30.000000000000135,-0.0,-40.00000000000018
40.00000000000018,90.0000000000004,50.00000000000022,-70.00000000000031,-0.0,80.00000000000036,190.00000000000085,270.0000000000012,180.0000000000008,40.00000000000018,-0.0,-40.00000000000018
30.000000000000135,100.00000000000044,60.00000000000027,-70.00000000000031,-10.000000000000044,80.00000000000036,200.00000000000088,280.00000000000125,190.00000000000085,50.00000000000022,-0.0,-30.000000000000135
40.00000000000018,100.00000000000044,50.00000000000022,-70.00000000000031,-0.0,80.00000000000036,200.00000000000088,300.0000000000013,200.00000000000088,60.00000000000027,-0.0,-30.000000000000135
50.00000000000022,100.00000000000044,50.00000000000022,-80.00000000000036,-0.0,80.00000000000036,210.00000000000094,310.00000000000136,210.00000000000094,80.00000000000036,10.000000000000044,-20.00000000000009
50.00000000000022,110.00000000000048,60.00000000000027,-80.00000000000036,-0.0,80.00000000000036,220.00000000000097,320.0000000000014,230.00000000000102,90.0000000000004,20.00000000000009,-10.000000000000044
50.00000000000022,110.00000000000048,50.00000000000022,-80.00000000000036,-0.0,80.00000000000036,230.00000000000102,340.00000000000153,240.00000000000108,100.00000000000044,30.000000000000135,-10.000000000000044
60.00000000000027,110.00000000000048,50.00000000000022,-90.0000000000004,-0.0,80.00000000000036,240.00000000000108,350.00000000000153,250.0000000000011,120.00000000000054,30.000000000000135,-10.000000000000044
50.00000000000022,110.00000000000048,50.00000000000022,-80.00000000000036,-0.0,80.00000000000036,240.00000000000108,360.0000000000016,260.00000000000114,140.00000000000063,40.00000000000018,-0.0
50.00000000000022,110.00000000000048,40.00000000000018,-80.00000000000036,-0.0,70.00000000000031,240.00000000000108,360.0000000000016,260.00000000000114,160.0000000000007,40.00000000000018,-0.0
60.00000000000027,100.00000000000044,20.00000000000009,-70.00000000000031,10.000000000000044,50.00000000000022,240.00000000000108,370.00000000000165,280.00000000000125,170.00000000000077,40.00000000000018,-0.0
70.00000000000031,90.0000000000004,-0.0,-70.00000000000031,20.00000000000009,30.000000000000135,240.00000000000108,370.00000000000165,290.0000000000013,170.00000000000077,40.00000000000018,-0.0
60.00000000000027,70.00000000000031,-0.0,-60.00000000000027,30.000000000000135,30.000000000000135,240.00000000000108,370.00000000000165,290.0000000000013,170.00000000000077,40.00000000000018,-0.0
50.00000000000022,60.00000000000027,-0.0,-50.00000000000022,20.00000000000009,10.000000000000044,240.00000000000108,370.00000000000165,290.0000000000013,170.00000000000077,50.00000000000022,-0.0
50.00000000000022,40.00000000000018,-10.000000000000044,-40.00000000000018,30.000000000000135,10.000000000000044,230.00000000000102,370.00000000000165,290.0000000000013,160.0000000000007,50.00000000000022,-0.0
40.00000000000018,30.000000000000135,-10.000000000000044,-40.00000000000018,30.000000000000135,-0.0,230.00000000000102,370.00000000000165,270.0000000000012,160.0000000000007,60.00000000000027,10.000000000000044
30.000000000000135,20.00000000000009,-20.00000000000009,-30.000000000000135,30.000000000000135,-0.0,220.00000000000097,360.0000000000016,270.0000000000012,150.00000000000065,70.00000000000031,20.00000000000009
30.000000000000135,10.000000000000044,-30.000000000000135,-10.000000000000044,30.000000000000135,-10.000000000000044,210.00000000000094,350.00000000000153,260.00000000000114,150.00000000000065,80.00000000000036,30.000000000000135
20.00000000000009,-0.0,-40.00000000000018,-0.0,30.000000000000135,-20.00000000000009,210.00000000000094,330.0000000000015,250.0000000000011,150.00000000000065,80.00000000000036,30.000000000000135
10.000000000000044,-10.000000000000044,-40.00000000000018,-0.0,20.00000000000009,-30.000000000000135,190.00000000000085,310.00000000000136,230.00000000000102,150.00000000000065,90.0000000000004,50.00000000000022
-0.0,-20.00000000000009,-40.00000000000018,10.000000000000044,10.000000000000044,-30.000000000000135,190.00000000000085,300.0000000000013,220.00000000000097,140.00000000000063,100.00000000000044,60.00000000000027
-10.000000000000044,-40.00000000000018,-20.00000000000009,20.00000000000009,-0.0,-30.000000000000135,170.00000000000077,280.00000000000125,200.00000000000088,130.00000000000057,100.00000000000044,70.00000000000031
-20.00000000000009,-40.00000000000018,-10.000000000000044,20.00000000000009,-0.0,-20.00000000000009,150.00000000000065,250.0000000000011,180.0000000000008,120.00000000000054,100.00000000000044,70.00000000000031
-20.00000000000009,-40.00000000000018,-10.000000000000044,20.00000000000009,-0.0,-20.00000000000009,130.00000000000057,220.00000000000097,170.00000000000077,100.00000000000044,100.00000000000044,80.00000000000036
-10.000000000000044,-30.000000000000135,-20.00000000000009,20.00000000000009,-0.0,-20.00000000000009,120.00000000000054,200.00000000000088,140.00000000000063,80.00000000000036,90.0000000000004,70.00000000000031
-0.0,-30.000000000000135,-30.000000000000135,10.000000000000044,-0.0,-30.000000000000135,100.00000000000044,170.00000000000077,110.00000000000048,50.00000000000022,70.00000000000031,60.00000000000027
-0.0,-30.000000000000135,-40.00000000000018,10.000000000000044,20.00000000000009,-40.00000000000018,80.00000000000036,140.00000000000063,90.0000000000004,30.000000000000135,50.00000000000022,50.00000000000022
10.000000000000044,-30.000000000000135,-50.00000000000022,10.000000000000044,30.000000000000135,-40.00000000000018,70.00000000000031,110.00000000000048,60.00000000000027,-0.0,30.000000000000135,30.000000000000135
-0.0,-40.00000000000018,-50.00000000000022,10.000000000000044,20.00000000000009,-40.00000000000018,60.00000000000027,90.0000000000004,30.000000000000135,-10.000000000000044,20.00000000000009,20.00000000000009
-0.0,-40.00000000000018,-40.00000000000018,10.000000000000044,20.00000000000009,-40.00000000000018,50.00000000000022,70.00000000000031,10.000000000000044,-30.000000000000135,-0.0,10.000000000000044
-0.0,-40.00000000000018,-40.00000000000018,20.00000000000009,10.000000000000044,-40.00000000000018,40.00000000000018,40.00000000000018,-0.0,-50.00000000000022,-10.000000000000044,-0.0
-10.000000000000044,-40.00000000000018,-30.000000000000135,20.00000000000009,-0.0,-30.000000000000135,30.000000000000135,20.00000000000009,-10.000000000000044,-60.00000000000027,-30.000000000000135,-10.000000000000044
-10.000000000000044,-40.00000000000018,-20.00000000000009,20.00000000000009,-0.0,-30.000000000000135,30.000000000000135,10.000000000000044,-30.000000000000135,-70.00000000000031,-40.00000000000018,-20.00000000000009
-10.000000000000044,-40.00000000000018,-20.00000000000009,20.00000000000009,-0.0,-30.000000000000135,20.00000000000009,-0.0,-40.00000000000018,-90.0000000000004,-50.00000000000022,-30.000000000000135
-0.0,-40.00000000000018,-20.00000000000009,10.000000000000044,-0.0,-20.00000000000009,20.00000000000009,-0.0,-50.00000000000022,-100.00000000000044,-60.00000000000027,-40.00000000000018
-0.0,-30.000000000000135,-30.000000000000135,-0.0,10.000000000000044,-20.00000000000009,10.000000000000044,-10.000000000000044,-60.00000000000027,-110.00000000000048,-80.00000000000036,-50.00000000000022
10.000000000000044,-20.00000000000009,-30.000000000000135,-0.0,20.00000000000009,-20.00000000000009,10.000000000000044,-20.00000000000009,-70.00000000000031,-120.00000000000054,-90.0000000000004,-50.00000000000022
20.00000000000009,-10.000000000000044,-30.000000000000135,-0.0,30.000000000000135,-20.00000000000009,-0.0,-20.00000000000009,-80.00000000000036,-120.00000000000054,-100.00000000000044,-70.00000000000031
20.00000000000009,-0.0,-30.000000000000135,-10.000000000000044,20.00000000000009,-10.000000000000044,-0.0,-30.000000000000135,-80.00000000000036,-120.00000000000054,-100.00000000000044,-70.00000000000031
-0.0,-0.0,-20.00000000000009,-0.0,-0.0,-10.000000000000044,-0.0,-30.000000000000135,-80.00000000000036,-120.00000000000054,-100.00000000000044,-70.00000000000031
-0.0,-0.0,-10.000000000000044,-0.0,-0.0,-0.0,-0.0,-30.000000000000135,-80.00000000000036,-110.00000000000048,-90.0000000000004,-60.00000000000027
-0.0,-10.000000000000044,-10.000000000000044,-0.0,-0.0,-10.000000000000044,-0.0,-30.000000000000135,-80.00000000000036,-110.00000000000048,-90.0000000000004,-60.00000000000027
-0.0,-20.00000000000009,-10.000000000000044,10.000000000000044,-0.0,-20.00000000000009,-0.0,-30.000000000000135,-70.00000000000031,-100.00000000000044,-80.00000000000036,-60.00000000000027
-0.0,-20.00000000000009,-10.000000000000044,10.000000000000044,-0.0,-20.00000000000009,-0.0,-30.000000000000135,-70.00000000000031,-100.00000000000044,-70.00000000000031,-50.00000000000022
-0.0,-20.00000000000009,-20.00000000000009,10.000000000000044,-0.0,-20.00000000000009,-0.0,-30.000000000000135,-70.00000000000031,-100.00000000000044,-70.00000000000031,-50.00000000000022
-0.0,-20.00000000000009,-20.00000000000009,10.000000000000044,-0.0,-20.00000000000009,-0.0,-30.000000000000135,-70.00000000000031,-100.00000000000044,-80.00000000000036,-50.00000000000022
-0.0,-20.00000000000009,-20.00000000000009,-0.0,-0.0,-20.00000000000009,-0.0,-30.000000000000135,-70.00000000000031,-100.00000000000044,-80.00000000000036,-50.00000000000022
-0.0,-20.00000000000009,-10.000000000000044,-0.0,-0.0,-10.000000000000044,-0.0,-20.00000000000009,-70.00000000000031,-100.00000000000044,-80.00000000000036,-50.00000000000022
-0.0,-10.000000000000044,-0.0,-0.0,-0.0,-0.0,-0.0,-20.00000000000009,-60.00000000000027,-90.0000000000004,-80.00000000000036,-50.00000000000022
-0.0,-0.0,-10.000000000000044,-0.0,-0.0,-10.000000000000044,-0.0,-20.00000000000009,-50.00000000000022,-90.0000000000004,-70.00000000000031,-40.00000000000018
-0.0,-0.0,-20.00000000000009,-0.0,10.000000000000044,-10.000000000000044,10.000000000000044,-20.00000000000009,-50.00000000000022,-90.0000000000004,-70.00000000000031,-40.00000000000018
10.000000000000044,-0.0,-20.00000000000009,-0.0,10.000000000000044,-10.000000000000044,10.000000000000044,-10.000000000000044,-50.00000000000022,-80.00000000000036,-70.00000000000031,-40.00000000000018
20.00000000000009,-0.0,-30.000000000000135,-0.0,20.00000000000009,-20.00000000000009,10.000000000000044,-10.000000000000044,-40.00000000000018,-80.00000000000036,-60.00000000000027,-40.00000000000018
10.000000000000044,-10.000000000000044,-30.000000000000135,-0.0,20.00000000000009,-20.00000000000009,10.000000000000044,-0.0,-50.00000000000022,-90.0000000000004,-70.00000000000031,-40.00000000000018
-0.0,-20.00000000000009,-30.000000000000135,-0.0,10.000000000000044,-20.00000000000009,10.000000000000044,-10.000000000000044,-50.00000000000022,-100.00000000000044,-70.00000000000031,-40.00000000000018
-0.0,-20.00000000000009,-20.00000000000009,10.000000000000044,-0.0,-20.00000000000009,10.000000000000044,-10.000000000000044,-50.00000000000022,-90.0000000000004,-80.00000000000036,-50.00000000000022
-0.0,-30.000000000000135,-20.00000000000009,10.000000000000044,-0.0,-30.000000000000135,10.000000000000044,-10.000000000000044,-50.00000000000022,-90.0000000000004,-80.00000000000036,-50.00000000000022
-10.000000000000044,-30.000000000000135,-20.00000000000009,20.00000000000009,-0.0,-30.000000000000135,-0.0,-10.000000000000044,-40.00000000000018,-90.0000000000004,-80.00000000000036,-50.00000000000022
-10.000000000000044,-30.000000000000135,-20.00000000000009,20.00000000000009,-0.0,-20.00000000000009,-0.0,-10.000000000000044,-30.000000000000135,-70.00000000000031,-80.00000000000036,-50.00000000000022
-0.0,-30.000000000000135,-30.000000000000135,10.000000000000044,10.000000000000044,-30.000000000000135,-0.0,-0.0,-20.00000000000009,-70.00000000000031,-70.00000000000031,-40.00000000000018
-0.0,-30.000000000000135,-30.000000000000135,10.000000000000044,10.000000000000044,-30.000000000000135,10.000000000000044,-0.0,-10.000000000000044,-60.00000000000027,-60.00000000000027,-40.00000000000018
-0.0,-30.000000000000135,-30.000000000000135,10.000000000000044,10.000000000000044,-30.000000000000135,10.000000000000044,10.000000000000044,-10.000000000000044,-50.00000000000022,-60.00000000000027,-40.00000000000018
-0.0,-30.000000000000135,-30.000000000000135,-0.0,10.000000000000044,-30.000000000000135,20.00000000000009,10.000000000000044,-10.000000000000044,-50.00000000000022,-50.00000000000022,-40.00000000000018
-0.0,-20.00000000000009,-40.00000000000018,10.000000000000044,20.00000000000009,-30.000000000000135,20.00000000000009,10.000000000000044,-0.0,-50.00000000000022,-50.00000000000022,-30.000000000000135
-0.0,-30.000000000000135,-30.000000000000135,10.000000000000044,10.000000000000044,-30.000000000000135,20.00000000000009,10.000000000000044,-0.0,-40.00000000000018,-50.00000000000022,-30.000000000000135
-0.0,-30.000000000000135,-40.00000000000018,-0.0,20.00000000000009,-30.000000000000135,20.00000000000009,10.000000000000044,-0.0,-30.000000000000135,-40.00000000000018,-30.000000000000135
10.000000000000044,-30.000000000000135,-50.00000000000022,-0.0,30.000000000000135,-40.00000000000018,20.00000000000009,20.00000000000009,-0.0,-20.00000000000009,-30.000000000000135,-30.000000000000135
10.000000000000044,-30.000000000000135,-40.00000000000018,-0.0,20.00000000000009,-30.000000000000135,20.00000000000009,20.00000000000009,-0.0,-20.00000000000009,-30.000000000000135,-20.00000000000009
10.000000000000044,-20.00000000000009,-30.000000000000135,-0.0,20.00000000000009,-20.00000000000009,20.00000000000009,30.000000000000135,-0.0,-20.00000000000009,-20.00000000000009,-20.00000000000009
10.000000000000044,-10.000000000000044,-20.00000000000009,-0.0,10.000000000000044,-10.000000000000044,20.00000000000009,20.00000000000009,-0.0,-20.00000000000009,-30.000000000000135,-20.00000000000009
-0.0,-0.0,-0.0,-0.0,-0.0,-0.0,30.000000000000135,20.00000000000009,-0.0,-20.00000000000009,-30.000000000000135,-30.000000000000135
-0.0,-0.0,10.000000000000044,-0.0,-10.000000000000044,10.000000000000044,20.00000000000009,10.000000000000044,-0.0,-20.00000000000009,-30.000000000000135,-30.000000000000135
-0.0,10.000000000000044,30.000000000000135,-10.000000000000044,-20.00000000000009,20.00000000000009,20.00000000000009,-0.0,-0.0,-20.00000000000009,-30.000000000000135,-30.000000000000135
-0.0,20.00000000000009,40.00000000000018,-20.00000000000009,-20.00000000000009,40.00000000000018,20.00000000000009,-0.0,-0.0,-20.00000000000009,-30.000000000000135,-20.00000000000009
-0.0,40.00000000000018,40.00000000000018,-20.00000000000009,-20.00000000000009,40.00000000000018,10.000000000000044,-0.0,-0.0,-20.00000000000009,-20.00000000000009,-20.00000000000009
-0.0,50.00000000000022,40.00000000000018,-30.000000000000135,-10.000000000000044,50.00000000000022,10.000000000000044,-0.0,-0.0,-10.000000000000044,-20.00000000000009,-20.00000000000009
10.000000000000044,50.00000000000022,40.00000000000018,-40.00000000000018,-10.000000000000044,50.00000000000022,10.000000000000044,10.000000000000044,-0.0,-10.000000000000044,-20.00000000000009,-10.000000000000044
30.000000000000135,60.00000000000027,30.000000000000135,-50.00000000000022,-0.0,50.00000000000022,20.00000000000009,10.000000000000044,-0.0,-0.0,-10.000000000000044,-10.000000000000044
30.000000000000135,70.00000000000031,40.00000000000018,-50.00000000000022,-0.0,50.00000000000022,20.00000000000009,10.000000000000044,-0.0,-0.0,-10.000000000000044,-10.000000000000044
30.000000000000135,70.00000000000031,50.00000000000022,-60.00000000000027,-0.0,70.00000000000031,20.00000000000009,10.000000000000044,-0.0,-10.000000000000044,-10.000000000000044,-0.0
40.00000000000018,90.0000000000004,40.00000000000018,-70.00000000000031,-0.0,70.00000000000031,20.00000000000009,-0.0,-0.0,-10.000000000000044,-10.000000000000044,-0.0
40.00000000000018,90.0000000000004,50.00000000000022,-70.00000000000031,-0.0,70.00000000000031,10.000000000000044,-0.0,-10.000000000000044,-10.000000000000044,-10.000000000000044,-0.0
30.000000000000135,100.00000000000044,60.00000000000027,-70.00000000000031,-10.000000000000044,80.00000000000036,10.000000000000044,-0.0,-10.000000000000044,-20.00000000000009,-10.000000000000044,-0.0
30.000000000000135,100.00000000000044,50.00000000000022,-60.00000000000027,-10.000000000000044,70.00000000000031,10.000000000000044,-0.0,-0.0,-10.000000000000044,-10.000000000000044,-0.0
30.000000000000135,90.0000000000004,40.00000000000018,-60.00000000000027,-0.0,60.00000000000027,-0.0,-0.0,-0.0,-10.000000000000044,-0.0,-0.0
30.000000000000135,80.00000000000036,20.00000000000009,-50.00000000000022,-0.0,40.00000000000018,-0.0,-0.0,-0.0,-0.0,-0.0,-0.0
40.00000000000018,60.00000000000027,10.000000000000044,-50.00000000000022,-0.0,30.000000000000135,-0.0,-0.0,-0.0,-0.0,-0.0,10.000000000000044
40.00000000000018,50.00000000000022,-0.0,-40.00000000000018,10.000000000000044,20.00000000000009,-0.0,-0.0,10.000000000000044,-0.0,-0.0,10.000000000000044
20.00000000000009,40.00000000000018,-0.0,-30.000000000000135,-0.0,10.000000000000044,-0.0,10.000000000000044,30.000000000000135,10.000000000000044,10.000000000000044,10.000000000000044
20.00000000000009,20.00000000000009,-0.0,-20.00000000000009,-0.0,-0.0,10.000000000000044,20.00000000000009,30.000000000000135,20.00000000000009,20.00000000000009,20.00000000000009
10.000000000000044,10.000000000000044,-10.000000000000044,-10.000000000000044,10.000000000000044,-0.0,10.000000000000044,30.000000000000135,30.000000000000135,20.00000000000009,20.00000000000009,30.000000000000135
-0.0,-0.0,-10.000000000000044,-0.0,-0.0,-10.000000000000044,-0.0,20.00000000000009,30.000000000000135,20.00000000000009,30.000000000000135,30.000000000000135
-0.0,-10.000000000000044,-20.00000000000009,10.000000000000044,-0.0,-20.00000000000009,-0.0,10.000000000000044,20.00000000000009,20.00000000000009,30.000000000000135,40.00000000000018
-0.0,-20.00000000000009,-30.000000000000135,10.000000000000044,10.000000000000044,-30.000000000000135,-10.000000000000044,-0.0,-0.0,-0.0,30.000000000000135,40.00000000000018
-0.0,-30.000000000000135,-40.00000000000018,10.000000000000044,20.00000000000009,-40.00000000000018,-30.000000000000135,-10.000000000000044,-0.0,-0.0,30.000000000000135,30.000000000000135
-0.0,-40.00000000000018,-60.00000000000027,30.000000000000135,20.00000000000009,-70.00000000000031,-50.00000000000022,-20.00000000000009,-0.0,-0.0,20.00000000000009,30.000000000000135
-0.0,-70.00000000000031,-100.00000000000044,50.00000000000022,40.00000000000018,-100.00000000000044,-60.00000000000027,-20.00000000000009,-0.0,-0.0,30.000000000000135,40.00000000000018
-0.0,-100.00000000000044,-110.00000000000048,50.00000000000022,50.00000000000022,-110.00000000000048,-60.00000000000027,-20.00000000000009,-0.0,-0.0,30.000000000000135,40.00000000000018
-10.000000000000044,-110.00000000000048,-100.00000000000044,60.00000000000027,40.00000000000018,-110.00000000000048,-60.00000000000027,-30.000000000000135,-0.0,-0.0,40.00000000000018,50.00000000000022
-10.000000000000044,-120.00000000000054,-110.00000000000048,60.00000000000027,40.00000000000018,-120.00000000000054,-60.00000000000027,-30.000000000000135,-0.0,-0.0,30.000000000000135,50.00000000000022
-10.000000000000044,-120.00000000000054,-110.00000000000048,70.00000000000031,50.00000000000022,-120.00000000000054,-60.00000000000027,-30.000000000000135,-0.0,-0.0,40.00000000000018,50.00000000000022
-10.000000000000044,-120.00000000000054,-110.00000000000048,60.00000000000027,40.00000000000018,-110.00000000000048,-60.00000000000027,-30.000000000000135,-10.000000000000044,-0.0,30.000000000000135,50.00000000000022
-0.0,-120.00000000000054,-100.00000000000044,50.00000000000022,50.00000000000022,-110.00000000000048,-60.00000000000027,-30.000000000000135,-10.000000000000044,-10.000000000000044,20.00000000000009,40.00000000000018
-0.0,-110.00000000000048,-100.00000000000044,50.00000000000022,50.00000000000022,-110.00000000000048,-50.00000000000022,-30.000000000000135,-10.000000000000044,-0.0,20.00000000000009,40.00000000000018
-0.0,-110.00000000000048,-110.00000000000048,50.00000000000022,50.00000000000022,-110.00000000000048,-40.00000000000018,-30.000000000000135,-10.000000000000044,-10.000000000000044,20.00000000000009,40.00000000000018
-0.0,-110.00000000000048,-110.00000000000048,60.00000000000027,50.00000000000022,-110.00000000000048,-30.000000000000135,-20.00000000000009,-10.000000000000044,-20.00000000000009,10.000000000000044,30.000000000000135
-10.000000000000044,-110.00000000000048,-100.00000000000044,60.00000000000027,40.00000000000018,-110.00000000000048,-30.000000000000135,-20.00000000000009,-20.00000000000009,-20.00000000000009,-0.0,20.00000000000009
-10.000000000000044,-110.00000000000048,-100.00000000000044,60.00000000000027,40.00000000000018,-100.00000000000044,-30.000000000000135,-20.00000000000009,-30.000000000000135,-30.000000000000135,-0.0,10.000000000000044
-0.0,-110.00000000000048,-100.00000000000044,50.00000000000022,40.00000000000018,-100.00000000000044,-30.000000000000135,-30.000000000000135,-40.00000000000018,-40.00000000000018,-10.000000000000044,-0.0
-10.000000000000044,-100.00000000000044,-100.00000000000044,50.00000000000022,40.00000000000018,-100.00000000000044,-30.000000000000135,-40.00000000000018,-50.00000000000022,-50.00000000000022,-20.00000000000009,-0.0
-10.000000000000044,-110.00000000000048,-110.00000000000048,60.00000000000027,40.00000000000018,-120.00000000000054,-30.000000000000135,-40.00000000000018,-50.00000000000022,-60.00000000000027,-20.00000000000009,-0.0
-20.00000000000009,-130.00000000000057,-130.00000000000057,80.00000000000036,50.00000000000022,-140.00000000000063,-30.000000000000135,-50.00000000000022,-50.00000000000022,-60.00000000000027,-30.000000000000135,-10.000000000000044
-20.00000000000009,-150.00000000000065,-160.0000000000007,100.00000000000044,60.00000000000027,-170.00000000000077,-40.00000000000018,-50.00000000000022,-50.00000000000022,-50.00000000000022,-30.000000000000135,-10.000000000000044
-0.0,-180.0000000000008,-180.0000000000008,90.0000000000004,80.00000000000036,-180.0000000000008,-40.00000000000018,-40.00000000000018,-50.00000000000022,-50.00000000000022,-30.000000000000135,-0.0
50.00000000000022,-180.0000000000008,-200.00000000000088,40.00000000000018,120.00000000000054,-170.00000000000077,-40.00000000000018,-40.00000000000018,-40.00000000000018,-40.00000000000018,-30.000000000000135,-0.0
140.00000000000063,-140.00000000000063,-200.00000000000088,-50.00000000000022,170.00000000000077,-110.00000000000048,-40.00000000000018,-40.00000000000018,-40.00000000000018,-40.00000000000018,-20.00000000000009,-10.000000000000044
270.0000000000012,-50.00000000000022,-170.00000000000077,-190.00000000000085,220.00000000000097,-30.000000000000135,-40.00000000000018,-30.000000000000135,-40.00000000000018,-50.00000000000022,-20.00000000000009,-0.0
400.00000000000176,100.00000000000044,-110.00000000000048,-350.00000000000153,260.00000000000114,80.00000000000036,-30.000000000000135,-30.000000000000135,-40.00000000000018,-50.00000000000022,-20.00000000000009,-0.0
500.0000000000022,280.00000000000125,-30.000000000000135,-490.00000000000216,270.0000000000012,210.00000000000094,-30.000000000000135,-30.000000000000135,-40.00000000000018,-50.00000000000022,-20.00000000000009,-0.0
550.0000000000024,470.0000000000021,50.00000000000022,-580.0000000000026,240.00000000000108,330.0000000000015,-30.000000000000135,-30.000000000000135,-40.00000000000018,-50.00000000000022,-10.000000000000044,-0.0
520.0000000000023,610.0000000000027,130.00000000000057,-600.0000000000026,190.00000000000085,390.0000000000017,-30.000000000000135,-40.00000000000018,-40.00000000000018,-50.00000000000022,-20.00000000000009,-0.0
450.000000000002,670.000000000003,190.00000000000085,-550.0000000000024,130.00000000000057,420.0000000000019,-30.000000000000135,-40.00000000000018,-30.000000000000135,-50.00000000000022,-20.00000000000009,-0.0
350.00000000000153,640.0000000000028,220.00000000000097,-460.00000000000205,60.00000000000027,380.0000000000017,-40.00000000000018,-40.00000000000018,-30.000000000000135,-40.00000000000018,-10.000000000000044,-0.0
240.00000000000108,560.0000000000025,190.00000000000085,-340.00000000000153,20.00000000000009,310.00000000000136,-40.00000000000018,-30.000000000000135,-30.000000000000135,-40.00000000000018,-10.000000000000044,-0.0
160.0000000000007,440.00000000000193,140.00000000000063,-240.00000000000108,-0.0,230.00000000000102,-30.000000000000135,-30.000000000000135,-20.00000000000009,-40.00000000000018,-10.000000000000044,-0.0
100.00000000000044,320.0000000000014,110.00000000000048,-160.0000000000007,-0.0,160.0000000000007,-30.000000000000135,-20.00000000000009,-10.000000000000044,-40.00000000000018,-20.00000000000009,-10.000000000000044
60.00000000000027,220.00000000000097,70.00000000000031,-100.00000000000044,-0.0,110.00000000000048,-10.000000000000044,-10.000000000000044,10.000000000000044,-20.00000000000009,-40.00000000000018,-30.000000000000135
30.000000000000135,140.00000000000063,40.00000000000018,-60.00000000000027,-0.0,60.00000000000027,10.000000000000044,30.000000000000135,80.00000000000036,30.000000000000135,-50.00000000000022,-50.00000000000022
-0.0,80.00000000000036,30.000000000000135,-30.000000000000135,-10.000000000000044,40.00000000000018,50.00000000000022,90.0000000000004,200.00000000000088,150.00000000000065,-40.00000000000018,-60.00000000000027
-0.0,40.00000000000018,30.000000000000135,-10.000000000000044,-20.00000000000009,20.00000000000009,90.0000000000004,180.0000000000008,360.0000000000016,340.00000000000153,10.000000000000044,-40.00000000000018
-10.000000000000044,20.00000000000009,10.000000000000044,-0.0,-10.000000000000044,-0.0,100.00000000000044,280.00000000000125,520.0000000000023,580.0000000000026,120.00000000000054,30.000000000000135
-10.000000000000044,-0.0,-0.0,-0.0,-0.0,-10.000000000000044,50.00000000000022,340.00000000000153,630.0000000000028,810.0000000000036,320.0000000000014,160.0000000000007
-10.000000000000044,-10.000000000000044,-20.00000000000009,20.00000000000009,-0.0,-20.00000000000009,-70.00000000000031,330.0000000000015,640.0000000000028,970.0000000000043,560.0000000000025,350.00000000000153
-10.000000000000044,-30.000000000000135,-30.000000000000135,20.00000000000009,-0.0,-30.000000000000135,-270.0000000000012,190.00000000000085,480.00000000000216,950.0000000000042,800.0000000000035,570.0000000000025
-20.00000000000009,-40.00000000000018,-30.000000000000135,30.000000000000135,-0.0,-40.00000000000018,-550.0000000000024,-60.00000000000027,150.00000000000065,700.0000000000031,960.0000000000043,760.0000000000034
-30.000000000000135,-60.00000000000027,-30.000000000000135,50.00000000000022,-0.0,-50.00000000000022,-860.0000000000039,-410.0000000000018,-270.0000000000012,280.00000000000125,960.0000000000043,860.0000000000039
-40.00000000000018,-70.00000000000031,-40.00000000000018,50.00000000000022,-0.0,-60.00000000000027,-1110.000000000005,-770.0000000000034,-700.0000000000031,-210.00000000000094,800.0000000000035,830.0000000000036
-30.000000000000135,-80.00000000000036,-50.00000000000022,50.00000000000022,-0.0,-60.00000000000027,-1260.0000000000057,-1070.0000000000048,-1040.0000000000045,-660.000000000003,520.0000000000023,700.0000000000031
-20.00000000000009,-70.00000000000031,-50.00000000000022,40.00000000000018,10.000000000000044,-60.00000000000027,-1290.0000000000057,-1250.0000000000055,-1210.0000000000055,-940.0000000000042,200.00000000000088,510.0000000000023
-10.000000000000044,-70.00000000000031,-60.00000000000027,40.00000000000018,20.00000000000009,-70.00000000000031,-1170.0000000000052,-1270.0000000000057,-1130.000000000005,-980.0000000000043,-60.00000000000027,300.0000000000013
-10.000000000000044,-80.00000000000036,-70.00000000000031,40.00000000000018,20.00000000000009,-80.00000000000036,-980.0000000000043,-1120.000000000005,-920.0000000000041,-840.0000000000038,-210.00000000000094,130.00000000000057
-10.000000000000044,-80.00000000000036,-80.00000000000036,40.00000000000018,30.000000000000135,-80.00000000000036,-760.0000000000034,-890.000000000004,-670.000000000003,-640.0000000000028,-270.0000000000012,20.00000000000009
-20.00000000000009,-90.0000000000004,-70.00000000000031,50.00000000000022,20.00000000000009,-80.00000000000036,-560.0000000000025,-650.0000000000028,-430.00000000000193,-430.00000000000193,-250.0000000000011,-40.00000000000018
-30.000000000000135,-100.00000000000044,-80.00000000000036,60.00000000000027,10.000000000000044,-90.0000000000004,-400.00000000000176,-430.00000000000193,-270.0000000000012,-290.0000000000013,-200.00000000000088,-70.00000000000031
-20.00000000000009,-110.00000000000048,-90.0000000000004,70.00000000000031,20.00000000000009,-100.00000000000044,-280.00000000000125,-280.00000000000125,-180.0000000000008,-220.00000000000097,-170.00000000000077,-80.00000000000036
-20.00000000000009,-120.00000000000054,-100.00000000000044,70.00000000000031,30.000000000000135,-110.00000000000048,-200.00000000000088,-180.0000000000008,-140.00000000000063,-180.0000000000008,-150.00000000000065,-80.00000000000036
-20.00000000000009,-120.00000000000054,-100.00000000000044,70.00000000000031,30.000000000000135,-110.00000000000048,-140.00000000000063,-130.00000000000057,-110.00000000000048,-150.00000000000065,-140.00000000000063,-90.0000000000004
-20.00000000000009,-120.00000000000054,-100.00000000000044,70.00000000000031,30.000000000000135,-110.00000000000048,-100.00000000000044,-90.0000000000004,-70.00000000000031,-110.00000000000048,-130.00000000000057,-90.0000000000004
-30.000000000000135,-120.00000000000054,-100.00000000000044,70.00000000000031,30.000000000000135,-110.00000000000048,-70.00000000000031,-60.00000000000027,-40.00000000000018,-80.00000000000036,-110.00000000000048,-80.00000000000036
-30.000000000000135,-130.00000000000057,-90.0000000000004,80.00000000000036,20.00000000000009,-100.00000000000044,-50.00000000000022,-30.000000000000135,-20.00000000000009,-60.00000000000027,-90.0000000000004,-80.00000000000036
-40.00000000000018,-120.00000000000054,-80.00000000000036,80.00000000000036,10.000000000000044,-100.00000000000044,-30.000000000000135,-10.000000000000044,-20.00000000000009,-60.00000000000027,-80.00000000000036,-80.00000000000036
-40.00000000000018,-120.00000000000054,-80.00000000000036,80.00000000000036,10.000000000000044,-100.00000000000044,-20.00000000000009,-0.0,-10.000000000000044,-50.00000000000022,-80.00000000000036,-80.00000000000036
-40.00000000000018,-130.00000000000057,-80.00000000000036,80.00000000000036,10.000000000000044,-100.00000000000044,-10.000000000000044,-0.0,-10.000000000000044,-50.00000000000022,-80.00000000000036,-80.00000000000036
-40.00000000000018,-130.00000000000057,-90.0000000000004,80.00000000000036,20.00000000000009,-110.00000000000048,-0.0,-0.0,-0.0,-40.00000000000018,-80.00000000000036,-80.00000000000036
-40.00000000000018,-130.00000000000057,-100.00000000000044,80.00000000000036,20.00000000000009,-110.00000000000048,-0.0,-0.0,-0.0,-40.00000000000018,-70.00000000000031,-70.00000000000031
-40.00000000000018,-130.00000000000057,-100.00000000000044,90.0000000000004,20.00000000000009,-120.00000000000054,-0.0,-0.0,-0.0,-20.00000000000009,-70.00000000000031,-70.00000000000031
-50.00000000000022,-140.00000000000063,-100.00000000000044,90.0000000000004,20.00000000000009,-120.00000000000054,-0.0,10.000000000000044,10.000000000000044,-10.000000000000044,-60.00000000000027,-70.00000000000031
-50.00000000000022,-140.00000000000063,-90.0000000000004,100.00000000000044,10.000000000000044,-110.00000000000048,-0.0,20.00000000000009,20.00000000000009,-0.0,-50.00000000000022,-60.00000000000027
-50.00000000000022,-140.00000000000063,-90.0000000000004,100.00000000000044,10.000000000000044,-120.00000000000054,10.000000000000044,30.000000000000135,30.000000000000135,-0.0,-40.00000000000018,-60.00000000000027
-50.00000000000022,-150.00000000000065,-80.00000000000036,100.00000000000044,10.000000000000044,-110.00000000000048,10.000000000000044,40.00000000000018,40.00000000000018,10.000000000000044,-30.000000000000135,-50.00000000000022
-50.00000000000022,-140.00000000000063,-90.0000000000004,90.0000000000004,10.000000000000044,-110.00000000000048,10.000000000000044,40.00000000000018,50.00000000000022,20.00000000000009,-30.000000000000135,-50.00000000000022
-40.00000000000018,-140.00000000000063,-100.00000000000044,90.0000000000004,20.00000000000009,-110.00000000000048,20.00000000000009,50.00000000000022,50.00000000000022,20.00000000000009,-20.00000000000009,-40.00000000000018
-30.000000000000135,-140.00000000000063,-100.00000000000044,80.00000000000036,30.000000000000135,-110.00000000000048,20.00000000000009,50.00000000000022,60.00000000000027,20.00000000000009,-20.00000000000009,-40.00000000000018
-20.00000000000009,-130.00000000000057,-100.00000000000044,70.00000000000031,30.000000000000135,-110.00000000000048,20.00000000000009,50.00000000000022,60.00000000000027,30.000000000000135,-20.00000000000009,-40.00000000000018
-20.00000000000009,-130.00000000000057,-100.00000000000044,70.00000000000031,30.000000000000135,-110.00000000000048,20.00000000000009,60.00000000000027,60.00000000000027,30.000000000000135,-20.00000000000009,-40.00000000000018
-20.00000000000009,-130.00000000000057,-100.00000000000044,70.00000000000031,40.00000000000018,-110.00000000000048,30.000000000000135,60.00000000000027,70.00000000000031,30.000000000000135,-10.000000000000044,-40.00000000000018
-10.000000000000044,-130.00000000000057,-100.00000000000044,70.00000000000031,40.00000000000018,-110.00000000000048,30.000000000000135,60.00000000000027,70.00000000000031,40.00000000000018,-20.00000000000009,-40.00000000000018
-20.00000000000009,-120.00000000000054,-100.00000000000044,70.00000000000031,30.000000000000135,-110.00000000000048,30.000000000000135,70.00000000000031,80.00000000000036,40.00000000000018,-20.00000000000009,-40.00000000000018
-10.000000000000044,-120.00000000000054,-90.0000000000004,60.00000000000027,30.000000000000135,-100.00000000000044,30.000000000000135,70.00000000000031,70.00000000000031,40.00000000000018,-20.00000000000009,-50.00000000000022
-10.000000000000044,-110.00000000000048,-90.0000000000004,60.00000000000027,30.000000000000135,-100.00000000000044,30.000000000000135,70.00000000000031,80.00000000000036,40.00000000000018,-20.00000000000009,-50.00000000000022
-10.000000000000044,-110.00000000000048,-80.00000000000036,50.00000000000022,30.000000000000135,-90.0000000000004,30.000000000000135,70.00000000000031,80.00000000000036,40.00000000000018,-20.00000000000009,-60.00000000000027
-10.000000000000044,-100.00000000000044,-80.00000000000036,40.00000000000018,30.000000000000135,-80.00000000000036,30.000000000000135,70.00000000000031,90.0000000000004,50.00000000000022,-20.00000000000009,-60.00000000000027
-0.0,-90.0000000000004,-70.00000000000031,40.00000000000018,30.000000000000135,-80.00000000000036,30.000000000000135,80.00000000000036,90.0000000000004,50.00000000000022,-20.00000000000009,-50.00000000000022
-0.0,-80.00000000000036,-70.00000000000031,40.00000000000018,20.00000000000009,-70.00000000000031,40.00000000000018,80.00000000000036,100.00000000000044,50.00000000000022,-20.00000000000009,-50.00000000000022
-10.000000000000044,-70.00000000000031,-60.00000000000027,30.000000000000135,10.000000000000044,-60.00000000000027,50.00000000000022,90.0000000000004,100.00000000000044,60.00000000000027,-20.00000000000009,-50.00000000000022
-10.000000000000044,-70.00000000000031,-40.00000000000018,30.000000000000135,10.000000000000044,-50.00000000000022,50.00000000000022,90.0000000000004,100.00000000000044,60.00000000000027,-10.000000000000044,-50.00000000000022
-10.000000000000044,-50.00000000000022,-30.000000000000135,30.000000000000135,10.000000000000044,-40.00000000000018,50.00000000000022,100.00000000000044,100.00000000000044,60.00000000000027,-10.000000000000044,-50.00000000000022
-10.000000000000044,-50.00000000000022,-30.000000000000135,20.00000000000009,-0.0,-40.00000000000018,50.00000000000022,100.00000000000044,110.00000000000048,60.00000000000027,-10.000000000000044,-50.00000000000022
-0.0,-40.00000000000018,-20.00000000000009,10.000000000000044,-0.0,-30.000000000000135,50.00000000000022,100.00000000000044,120.00000000000054,70.00000000000031,-10.000000000000044,-50.00000000000022
-0.0,-30.000000000000135,-20.00000000000009,-0.0,10.000000000000044,-20.00000000000009,60.00000000000027,110.00000000000048,130.00000000000057,80.00000000000036,-10.000000000000044,-50.00000000000022
-0.0,-20.00000000000009,-10.000000000000044,-0.0,-0.0,-10.000000000000044,60.00000000000027,130.00000000000057,150.00000000000065,100.00000000000044,-0.0,-40.00000000000018
-0.0,-10.000000000000044,-0.0,-0.0,-0.0,-0.0,70.00000000000031,140.00000000000063,160.0000000000007,100.00000000000044,-0.0,-40.00000000000018
10.000000000000044,-0.0,-0.0,-10.000000000000044,-0.0,-0.0,80.00000000000036,150.00000000000065,170.00000000000077,110.00000000000048,-0.0,-30.000000000000135
10.000000000000044,10.000000000000044,-0.0,-10.000000000000044,-0.0,10.000000000000044,90.0000000000004,160.0000000000007,180.0000000000008,110.00000000000048,-0.0,-30.000000000000135
10.000000000000044,20.00000000000009,10.000000000000044,-20.00000000000009,-0.0,20.00000000000009,90.0000000000004,170.00000000000077,190.00000000000085,130.00000000000057,10.000000000000044,-20.00000000000009
20.00000000000009,20.00000000000009,10.000000000000044,-20.00000000000009,-0.0,20.00000000000009,100.00000000000044,180.0000000000008,200.00000000000088,140.00000000000063,10.000000000000044,-20.00000000000009
20.00000000000009,30.000000000000135,10.000000000000044,-30.000000000000135,-0.0,20.00000000000009,100.00000000000044,190.00000000000085,210.00000000000094,150.00000000000065,20.00000000000009,-10.000000000000044
20.00000000000009,30.000000000000135,10.000000000000044,-30.000000000000135,-0.0,20.00000000000009,110.00000000000048,200.00000000000088,230.00000000000102,170.00000000000077,40.00000000000018,-0.0
20.00000000000009,30.000000000000135,-0.0,-20.00000000000009,-0.0,10.000000000000044,120.00000000000054,220.00000000000097,240.00000000000108,180.0000000000008,50.00000000000022,-0.0
20.00000000000009,30.000000000000135,-0.0,-20.00000000000009,10.000000000000044,10.000000000000044,140.00000000000063,230.00000000000102,250.0000000000011,190.00000000000085,60.00000000000027,10.000000000000044
20.00000000000009,20.00000000000009,-0.0,-20.00000000000009,10.000000000000044,10.000000000000044,150.00000000000065,240.00000000000108,260.00000000000114,190.00000000000085,60.00000000000027,10.000000000000044
20.00000000000009,20.00000000000009,-10.000000000000044,-20.00000000000009,10.000000000000044,-0.0,160.0000000000007,260.00000000000114,260.00000000000114,200.00000000000088,70.00000000000031,10.000000000000044
20.00000000000009,10.000000000000044,-10.000000000000044,-10.000000000000044,10.000000000000044,-0.0,170.00000000000077,280.00000000000125,260.00000000000114,200.00000000000088,70.00000000000031,20.00000000000009
20.00000000000009,-0.0,-20.00000000000009,-0.0,20.00000000000009,-10.000000000000044,170.00000000000077,290.0000000000013,260.00000000000114,200.00000000000088,70.00000000000031,20.00000000000009
10.000000000000044,-0.0,-30.000000000000135,-0.0,20.00000000000009,-20.00000000000009,170.00000000000077,290.0000000000013,250.0000000000011,200.00000000000088,80.00000000000036,20.00000000000009
10.000000000000044,-20.00000000000009,-40.00000000000018,-0.0,20.00000000000009,-30.000000000000135,170.00000000000077,290.0000000000013,260.00000000000114,200.00000000000088,80.00000000000036,30.000000000000135
-0.0,-20.00000000000009,-30.000000000000135,-0.0,10.000000000000044,-30.000000000000135,180.0000000000008,290.0000000000013,260.00000000000114,200.00000000000088,90.0000000000004,40.00000000000018
-0.0,-30.000000000000135,-30.000000000000135,10.000000000000044,10.000000000000044,-30.000000000000135,170.00000000000077,280.00000000000125,250.0000000000011,200.00000000000088,100.00000000000044,50.00000000000022
-10.000000000000044,-40.00000000000018,-30.000000000000135,20.00000000000009,-0.0,-40.00000000000018,170.00000000000077,270.0000000000012,250.0000000000011,200.00000000000088,110.00000000000048,60.00000000000027
-20.00000000000009,-50.00000000000022,-30.000000000000135,30.000000000000135,-0.0,-40.00000000000018,160.0000000000007,270.0000000000012,240.00000000000108,200.00000000000088,110.00000000000048,70.00000000000031
-20.00000000000009,-60.00000000000027,-40.00000000000018,40.00000000000018,-0.0,-50.00000000000022,160.0000000000007,250.0000000000011,220.00000000000097,190.00000000000085,120.00000000000054,80.00000000000036
-30.000000000000135,-70.00000000000031,-40.00000000000018,50.00000000000022,-0.0,-60.00000000000027,140.00000000000063,230.00000000000102,210.00000000000094,190.00000000000085,120.00000000000054,80.00000000000036
-30.000000000000135,-70.00000000000031,-40.00000000000018,50.00000000000022,-0.0,-60.00000000000027,130.00000000000057,220.00000000000097,200.00000000000088,170.00000000000077,130.00000000000057,90.0000000000004
-30.000000000000135,-80.00000000000036,-50.00000000000022,50.00000000000022,-0.0,-60.00000000000027,110.00000000000048,200.00000000000088,180.0000000000008,160.0000000000007,130.00000000000057,90.0000000000004
-20.00000000000009,-80.00000000000036,-50.00000000000022,50.00000000000022,10.000000000000044,-60.00000000000027,100.00000000000044,180.0000000000008,160.0000000000007,150.00000000000065,130.00000000000057,100.00000000000044
-20.00000000000009,-80.00000000000036,-50.00000000000022,50.00000000000022,-0.0,-60.00000000000027,80.00000000000036,160.0000000000007,140.00000000000063,130.00000000000057,130.00000000000057,100.00000000000044
-20.00000000000009,-80.00000000000036,-50.00000000000022,50.00000000000022,10.000000000000044,-60.00000000000027,70.00000000000031,140.00000000000063,110.00000000000048,110.00000000000048,120.00000000000054,100.00000000000044
-30.000000000000135,-70.00000000000031,-40.00000000000018,50.00000000000022,-0.0,-60.00000000000027,60.00000000000027,110.00000000000048,90.0000000000004,100.00000000000044,110.00000000000048,100.00000000000044
-30.000000000000135,-70.00000000000031,-40.00000000000018,50.00000000000022,-0.0,-50.00000000000022,40.00000000000018,90.0000000000004,70.00000000000031,80.00000000000036,100.00000000000044,90.0000000000004
-40.00000000000018,-70.00000000000031,-30.000000000000135,50.00000000000022,-0.0,-50.00000000000022,30.000000000000135,70.00000000000031,40.00000000000018,50.00000000000022,90.0000000000004,80.00000000000036
-40.00000000000018,-70.00000000000031,-30.000000000000135,50.00000000000022,-0.0,-50.00000000000022,20.00000000000009,40.00000000000018,20.00000000000009,30.000000000000135,70.00000000000031,70.00000000000031
-40.00000000000018,-70.00000000000031,-20.00000000000009,50.00000000000022,-0.0,-40.00000000000018,10.000000000000044,30.000000000000135,10.000000000000044,20.00000000000009,60.00000000000027,60.00000000000027
-30.000000000000135,-70.00000000000031,-40.00000000000018,40.00000000000018,-0.0,-50.00000000000022,10.000000000000044,10.000000000000044,-0.0,-0.0,50.00000000000022,60.00000000000027
-20.00000000000009,-60.00000000000027,-40.00000000000018,40.00000000000018,-0.0,-50.00000000000022,-0.0,-0.0,-0.0,-0.0,40.00000000000018,50.00000000000022
-20.00000000000009,-60.00000000000027,-30.000000000000135,30.000000000000135,-0.0,-40.00000000000018,-0.0,-0.0,-10.000000000000044,-0.0,40.00000000000018,40.00000000000018
-10.000000000000044,-60.00000000000027,-30.000000000000135,30.000000000000135,-0.0,-40.00000000000018,-0.0,-0.0,-10.000000000000044,-10.000000000000044,30.000000000000135,40.00000000000018
-20.00000000000009,-50.00000000000022,-30.000000000000135,30.000000000000135,-0.0,-40.00000000000018,-0.0,-0.0,-20.00000000000009,-20.00000000000009,20.00000000000009,30.000000000000135
-30.000000000000135,-50.00000000000022,-20.00000000000009,40.00000000000018,-0.0,-40.00000000000018,-0.0,-10.000000000000044,-30.000000000000135,-20.00000000000009,20.00000000000009,20.00000000000009
-30.000000000000135,-50.00000000000022,-10.000000000000044,40.00000000000018,-0.0,-30.000000000000135,-0.0,-20.00000000000009,-40.00000000000018,-40.00000000000018,10.000000000000044,20.00000000000009
-30.000000000000135,-50.00000000000022,-10.000000000000044,30.000000000000135,-0.0,-30.000000000000135,-0.0,-30.000000000000135,-50.00000000000022,-50.00000000000022,-0.0,20.00000000000009
-20.00000000000009,-40.00000000000018,-10.000000000000044,30.000000000000135,-0.0,-20.00000000000009,-0.0,-30.000000000000135,-50.00000000000022,-50.00000000000022,-0.0,10.000000000000044
-20.00000000000009,-40.00000000000018,-10.000000000000044,30.000000000000135,-0.0,-20.00000000000009,-10.000000000000044,-40.00000000000018,-50.00000000000022,-50.00000000000022,-0.0,-0.0
-30.000000000000135,-40.00000000000018,-0.0,30.000000000000135,-10.000000000000044,-20.00000000000009,-10.000000000000044,-40.00000000000018,-50.00000000000022,-50.00000000000022,-0.0,-0.0
-40.00000000000018,-40.00000000000018,-0.0,40.00000000000018,-20.00000000000009,-10.000000000000044,-10.000000000000044,-40.00000000000018,-40.00000000000018,-40.00000000000018,-0.0,10.000000000000044
-40.00000000000018,-40.00000000000018,-0.0,30.000000000000135,-20.00000000000009,-10.000000000000044,-10.000000000000044,-40.00000000000018,-40.00000000000018,-40.00000000000018,-0.0,10.000000000000044
-50.00000000000022,-30.000000000000135,-0.0,40.00000000000018,-30.000000000000135,-10.000000000000044,-10.000000000000044,-30.000000000000135,-40.00000000000018,-40.00000000000018,-0.0,10.000000000000044
-40.00000000000018,-30.000000000000135,-0.0,30.000000000000135,-20.00000000000009,-10.000000000000044,-0.0,-30.000000000000135,-40.00000000000018,-40.00000000000018,-0.0,-0.0
-30.000000000000135,-30.000000000000135,-0.0,20.00000000000009,-10.000000000000044,-10.000000000000044,-0.0,-30.000000000000135,-50.00000000000022,-50.00000000000022,-0.0,-0.0
-20.00000000000009,-30.000000000000135,-10.000000000000044,20.00000000000009,-0.0,-20.00000000000009,-10.000000000000044,-30.000000000000135,-50.00000000000022,-50.00000000000022,-10.000000000000044,-0.0
-20.00000000000009,-30.000000000000135,-10.000000000000044,20.00000000000009,-0.0,-20.00000000000009,-10.000000000000044,-40.00000000000018,-50.00000000000022,-50.00000000000022,-10.000000000000044,-0.0
-20.00000000000009,-30.000000000000135,-10.000000000000044,20.00000000000009,-0.0,-20.00000000000009,-10.000000000000044,-40.00000000000018,-50.00000000000022,-60.00000000000027,-10.000000000000044,-0.0
-20.00000000000009,-30.000000000000135,-0.0,20.00000000000009,-0.0,-10.000000000000044,-10.000000000000044,-40.00000000000018,-50.00000000000022,-50.00000000000022,-10.000000000000044,-0.0
-20.00000000000009,-30.000000000000135,-0.0,20.00000000000009,-0.0,-10.000000000000044,-10.000000000000044,-30.000000000000135,-40.00000000000018,-50.00000000000022,-10.000000000000044,-0.0
-30.000000000000135,-30.000000000000135,-0.0,30.000000000000135,-10.000000000000044,-10.000000000000044,-10.000000000000044,-30.000000000000135,-30.000000000000135,-40.00000000000018,-10.000000000000044,-0.0
-30.000000000000135,-30.000000000000135,-0.0,30.000000000000135,-10.000000000000044,-10.000000000000044,-0.0,-20.00000000000009,-30.000000000000135,-40.00000000000018,-0.0,-0.0
-20.00000000000009,-30.000000000000135,-0.0,20.00000000000009,-10.000000000000044,-10.000000000000044,-0.0,-20.00000000000009,-30.000000000000135,-30.000000000000135,-0.0,-0.0
-20.00000000000009,-30.000000000000135,-10.000000000000044,20.00000000000009,-0.0,-20.00000000000009,-10.000000000000044,-20.00000000000009,-30.000000000000135,-30.000000000000135,-0.0,-0.0
-10.000000000000044,-30.000000000000135,-20.00000000000009,20.00000000000009,-0.0,-20.00000000000009,-10.000000000000044,-20.00000000000009,-20.00000000000009,-30.000000000000135,-0.0,-0.0
-0.0,-30.000000000000135,-20.00000000000009,10.000000000000044,-0.0,-20.00000000000009,-0.0,-10.000000000000044,-20.00000000000009,-30.000000000000135,-0.0,-0.0
-0.0,-20.00000000000009,-20.00000000000009,10.000000000000044,-0.0,-20.00000000000009,-10.000000000000044,-20.00000000000009,-20.00000000000009,-30.000000000000135,-0.0,-0.0
-0.0,-20.00000000000009,-20.00000000000009,10.000000000000044,-0.0,-20.00000000000009,-10.000000000000044,-20.00000000000009,-20.00000000000009,-20.00000000000009,-0.0,-0.0
-0.0,-20.00000000000009,-10.000000000000044,-0.0,-0.0,-10.000000000000044,-10.000000000000044,-10.000000000000044,-10.000000000000044,-10.000000000000044,-0.0,-0.0
-0.0,-10.000000000000044,-10.000000000000044,-0.0,-0.0,-10.000000000000044,-0.0,-10.000000000000044,-10.000000000000044,-10.000000000000044,-0.0,10.000000000000044
-10.000000000000044,-20.00000000000009,-10.000000000000044,10.000000000000044,-0.0,-20.00000000000009,-0.0,-10.000000000000044,-10.000000000000044,-10.000000000000044,-0.0,-0.0
-10.000000000000044,-30.000000000000135,-20.00000000000009,20.00000000000009,-0.0,-30.000000000000135,-0.0,-10.000000000000044,-10.000000000000044,-10.000000000000044,-0.0,-0.0
-20.00000000000009,-30.000000000000135,-20.00000000000009,20.00000000000009,-0.0,-30.000000000000135,-0.0,-10.000000000000044,-0.0,-10.000000000000044,-0.0,-0.0
-30.000000000000135,-40.00000000000018,-20.00000000000009,30.000000000000135,-0.0,-30.000000000000135,-10.000000000000044,-0.0,-0.0,-0.0,-0.0,-0.0
-30.000000000000135,-50.00000000000022,-20.00000000000009,30.000000000000135,-0.0,-30.000000000000135,-10.000000000000044,-0.0,-0.0,-0.0,10.000000000000044,-0.0
-10.000000000000044,-50.00000000000022,-20.00000000000009,20.00000000000009,-0.0,-30.000000000000135,-10.000000000000044,-0.0,-0.0,-0.0,10.000000000000044,-0.0
-10.000000000000044,-40.00000000000018,-10.000000000000044,10.000000000000044,-0.0,-10.000000000000044,-0.0,-0.0,-0.0,-0.0,10.000000000000044,10.000000000000044
-0.0,-20.00000000000009,-10.000000000000044,-0.0,-0.0,-10.000000000000044,-0.0,-0.0,-0.0,-0.0,20.00000000000009,10.000000000000044
-0.0,-10.000000000000044,-0.0,-0.0,-0.0,-0.0,-0.0,-0.0,-0.0,-0.0,20.00000000000009,10.000000000000044
10.000000000000044,-0.0,-0.0,-10.000000000000044,-0.0,-0.0,-0.0,-0.0,-0.0,-0.0,10.000000000000044,10.000000000000044
10.000000000000044,10.000000000000044,-0.0,-10.000000000000044,-0.0,10.000000000000044,-0.0,-10.000000000000044,-10.000000000000044,-10.000000000000044,10.000000000000044,-0.0
10.000000000000044,10.000000000000044,-0.0,-20.00000000000009,-0.0,-0.0,-0.0,-10.000000000000044,-10.000000000000044,-10.000000000000044,-0.0,-0.0
10.000000000000044,10.000000000000044,-0.0,-20.00000000000009,-0.0,-0.0,-10.000000000000044,-10.000000000000044,-10.000000000000044,-10.000000000000044,-0.0,-0.0
10.000000000000044,20.00000000000009,-0.0,-20.00000000000009,-0.0,10.000000000000044,-10.000000000000044,-20.00000000000009,-10.000000000000044,-10.000000000000044,-0.0,-0.0
20.00000000000009,20.00000000000009,-0.0,-20.00000000000009,-0.0,10.000000000000044,-10.000000000000044,-10.000000000000044,-10.000000000000044,-10.000000000000044,-0.0,-0.0
10.000000000000044,20.00000000000009,-0.0,-20.00000000000009,-0.0,10.000000000000044,-0.0,-10.000000000000044,-10.000000000000044,-10.000000000000044,-0.0,-0.0
10.000000000000044,20.00000000000009,20.00000000000009,-20.00000000000009,-0.0,20.00000000000009,-10.000000000000044,-10.000000000000044,-10.000000000000044,-10.000000000000044,-0.0,-0.0
20.00000000000009,30.000000000000135,10.000000000000044,-30.000000000000135,-0.0,20.00000000000009,-10.000000000000044,-10.000000000000044,-10.000000000000044,-10.000000000000044,-0.0,-0.0
30.000000000000135,40.00000000000018,-0.0,-40.00000000000018,10.000000000000044,20.00000000000009,-10.000000000000044,-10.000000000000044,-10.000000000000044,-10.000000000000044,-0.0,-0.0
40.00000000000018,40.00000000000018,-0.0,-50.00000000000022,10.000000000000044,30.000000000000135,-10.000000000000044,-10.000000000000044,-10.000000000000044,-10.000000000000044,-0.0,-0.0
50.00000000000022,50.00000000000022,-0.0,-50.00000000000022,20.00000000000009,20.00000000000009,-10.000000000000044,-10.000000000000044,-0.0,-10.000000000000044,-0.0,-0.0
60.00000000000027,50.00000000000022,-10.000000000000044,-50.00000000000022,30.000000000000135,10.000000000000044,-0.0,-10.000000000000044,-0.0,-0.0,-0.0,-0.0
50.00000000000022,50.00000000000022,-10.000000000000044,-50.00000000000022,30.000000000000135,10.000000000000044,-0.0,-0.0,-0.0,-0.0,-0.0,-0.0
50.00000000000022,40.00000000000018,-10.000000000000044,-40.00000000000018,30.000000000000135,-0.0,-0.0,-0.0,-0.0,-0.0,-0.0,10.000000000000044
50.00000000000022,30.000000000000135,-30.000000000000135,-30.000000000000135,30.000000000000135,-0.0,-0.0,-0.0,-0.0,-0.0,10.000000000000044,10.000000000000044
40.00000000000018,10.000000000000044,-40.00000000000018,-20.00000000000009,40.00000000000018,-20.00000000000009,-0.0,-0.0,-0.0,-0.0,10.000000000000044,-0.0
30.000000000000135,-0.0,-50.00000000000022,-10.000000000000044,40.00000000000018,-30.000000000000135,-0.0,-0.0,-0.0,-0.0,10.000000000000044,-0.0
40.00000000000018,-10.000000000000044,-70.00000000000031,-0.0,50.00000000000022,-50.00000000000022,-10.000000000000044,-0.0,-0.0,-0.0,10.000000000000044,10.000000000000044
30.000000000000135,-30.000000000000135,-80.00000000000036,-0.0,50.00000000000022,-60.00000000000027,-30.000000000000135,-20.00000000000009,-10.000000000000044,-0.0,10.000000000000044,-0.0
20.00000000000009,-40.00000000000018,-80.00000000000036,10.000000000000044,50.00000000000022,-70.00000000000031,-40.00000000000018,-30.000000000000135,-10.000000000000044,-0.0,10.000000000000044,10.000000000000044
20.00000000000009,-50.00000000000022,-90.0000000000004,10.000000000000044,50.00000000000022,-70.00000000000031,-50.00000000000022,-40.00000000000018,-30.000000000000135,-10.000000000000044,10.000000000000044,10.000000000000044
10.000000000000044,-60.00000000000027,-90.0000000000004,10.000000000000044,50.00000000000022,-70.00000000000031,-70.00000000000031,-60.00000000000027,-30.000000000000135,-10.000000000000044,-0.0,10.000000000000044
10.000000000000044,-70.00000000000031,-80.00000000000036,20.00000000000009,40.00000000000018,-70.00000000000031,-70.00000000000031,-60.00000000000027,-30.000000000000135,-10.000000000000044,-0.0,10.000000000000044
10.000000000000044,-70.00000000000031,-90.0000000000004,20.00000000000009,50.00000000000022,-80.00000000000036,-70.00000000000031,-60.00000000000027,-20.00000000000009,-10.000000000000044,10.000000000000044,20.00000000000009
10.000000000000044,-70.00000000000031,-90.0000000000004,20.00000000000009,50.00000000000022,-80.00000000000036,-70.00000000000031,-60.00000000000027,-20.00000000000009,-0.0,20.00000000000009,30.000000000000135
10.000000000000044,-70.00000000000031,-90.0000000000004,20.00000000000009,50.00000000000022,-80.00000000000036,-70.00000000000031,-60.00000000000027,-10.000000000000044,-0.0,20.00000000000009,30.000000000000135
20.00000000000009,-70.00000000000031,-100.00000000000044,20.00000000000009,60.00000000000027,-80.00000000000036,-60.00000000000027,-60.00000000000027,-0.0,-0.0,30.000000000000135,30.000000000000135
20.00000000000009,-70.00000000000031,-100.00000000000044,20.00000000000009,60.00000000000027,-80.00000000000036,-50.00000000000022,-50.00000000000022,-10.000000000000044,-0.0,30.000000000000135,40.00000000000018
20.00000000000009,-70.00000000000031,-100.00000000000044,20.00000000000009,60.00000000000027,-80.00000000000036,-50.00000000000022,-60.00000000000027,-10.000000000000044,-0.0,20.00000000000009,30.000000000000135
10.000000000000044,-70.00000000000031,-100.00000000000044,20.00000000000009,50.00000000000022,-80.00000000000036,-60.00000000000027,-60.00000000000027,-10.000000000000044,-0.0,20.00000000000009,20.00000000000009
10.000000000000044,-70.00000000000031,-90.0000000000004,20.00000000000009,50.00000000000022,-80.00000000000036,-50.00000000000022,-60.00000000000027,-0.0,-0.0,20.00000000000009,20.00000000000009
10.000000000000044,-80.00000000000036,-90.0000000000004,30.000000000000135,50.00000000000022,-90.0000000000004,-60.00000000000027,-60.00000000000027,-10.000000000000044,-0.0,10.000000000000044,20.00000000000009
10.000000000000044,-80.00000000000036,-90.0000000000004,30.000000000000135,50.00000000000022,-90.0000000000004,-50.00000000000022,-50.00000000000022,-10.000000000000044,-10.000000000000044,-0.0,10.000000000000044
10.000000000000044,-80.00000000000036,-80.00000000000036,20.00000000000009,40.00000000000018,-70.00000000000031,-60.00000000000027,-50.00000000000022,-10.000000000000044,-10.000000000000044,-0.0,-0.0
10.000000000000044,-70.00000000000031,-80.00000000000036,20.00000000000009,40.00000000000018,-70.00000000000031,-60.00000000000027,-50.00000000000022,-30.000000000000135,-20.00000000000009,-0.0,-0.0
10.000000000000044,-60.00000000000027,-80.00000000000036,20.00000000000009,40.00000000000018,-70.00000000000031,-60.00000000000027,-60.00000000000027,-40.00000000000018,-30.000000000000135,-20.00000000000009,-10.000000000000044
10.000000000000044,-60.00000000000027,-90.0000000000004,20.00000000000009,50.00000000000022,-80.00000000000036,-70.00000000000031,-70.00000000000031,-40.00000000000018,-30.000000000000135,-20.00000000000009,-20.00000000000009
-0.0,-80.00000000000036,-100.00000000000044,40.00000000000018,50.00000000000022,-100.00000000000044,-60.00000000000027,-70.00000000000031,-30.000000000000135,-30.000000000000135,-20.00000000000009,-20.00000000000009
-0.0,-100.00000000000044,-120.00000000000054,50.00000000000022,50.00000000000022,-120.00000000000054,-60.00000000000027,-70.00000000000031,-30.000000000000135,-20.00000000000009,-20.00000000000009,-20.00000000000009
-0.0,-120.00000000000054,-150.00000000000065,70.00000000000031,70.00000000000031,-140.00000000000063,-60.00000000000027,-60.00000000000027,-20.00000000000009,-20.00000000000009,-20.00000000000009,-20.00000000000009
30.000000000000135,-140.00000000000063,-170.00000000000077,40.00000000000018,100.00000000000044,-150.00000000000065,-50.00000000000022,-60.00000000000027,-20.00000000000009,-10.000000000000044,-10.000000000000044,-10.000000000000044
100.00000000000044,-130.00000000000057,-170.00000000000077,-30.000000000000135,130.00000000000057,-110.00000000000048,-50.00000000000022,-50.00000000000022,-20.00000000000009,-20.00000000000009,-20.00000000000009,-20.00000000000009
200.00000000000088,-60.00000000000027,-150.00000000000065,-130.00000000000057,170.00000000000077,-40.00000000000018,-50.00000000000022,-60.00000000000027,-20.00000000000009,-20.00000000000009,-20.00000000000009,-20.00000000000009
330.0000000000015,60.00000000000027,-100.00000000000044,-280.00000000000125,210.00000000000094,60.00000000000027,-50.00000000000022,-60.00000000000027,-20.00000000000009,-20.00000000000009,-20.00000000000009,-20.00000000000009
450.000000000002,230.00000000000102,-30.000000000000135,-440.00000000000193,240.00000000000108,180.0000000000008,-50.00000000000022,-60.00000000000027,-20.00000000000009,-20.00000000000009,-20.00000000000009,-20.00000000000009
530.0000000000024,420.0000000000019,60.00000000000027,-560.0000000000025,230.00000000000102,320.0000000000014,-50.00000000000022,-60.00000000000027,-10.000000000000044,-10.000000000000044,-20.00000000000009,-20.00000000000009
540.0000000000024,580.0000000000026,140.00000000000063,-620.0000000000027,190.00000000000085,410.0000000000018,-50.00000000000022,-50.00000000000022,-10.000000000000044,-10.000000000000044,-20.00000000000009,-20.00000000000009
500.0000000000022,680.0000000000031,190.00000000000085,-600.0000000000026,150.00000000000065,450.000000000002,-50.00000000000022,-40.00000000000018,-0.0,-10.000000000000044,-20.00000000000009,-20.00000000000009
410.0000000000018,700.0000000000031,220.00000000000097,-530.0000000000024,90.0000000000004,430.00000000000193,-40.00000000000018,-40.00000000000018,-0.0,-10.000000000000044,-20.00000000000009,-30.000000000000135
300.0000000000013,640.0000000000028,210.00000000000094,-410.0000000000018,30.000000000000135,370.00000000000165,-50.00000000000022,-40.00000000000018,-0.0,-0.0,-20.00000000000009,-30.000000000000135
200.00000000000088,520.0000000000023,160.0000000000007,-290.0000000000013,10.000000000000044,270.0000000000012,-40.00000000000018,-30.000000000000135,-0.0,-10.000000000000044,-30.000000000000135,-40.00000000000018
130.00000000000057,370.00000000000165,100.00000000000044,-190.00000000000085,10.000000000000044,170.00000000000077,-30.000000000000135,-20.00000000000009,20.00000000000009,-0.0,-40.00000000000018,-60.00000000000027
80.00000000000036,250.0000000000011,70.00000000000031,-120.00000000000054,-0.0,110.00000000000048,-10.000000000000044,10.000000000000044,70.00000000000031,40.00000000000018,-50.00000000000022,-70.00000000000031
40.00000000000018,160.0000000000007,50.00000000000022,-70.00000000000031,-0.0,80.00000000000036,30.000000000000135,60.00000000000027,160.0000000000007,110.00000000000048,-50.00000000000022,-80.00000000000036
30.000000000000135,100.00000000000044,30.000000000000135,-50.00000000000022,-0.0,50.00000000000022,80.00000000000036,140.00000000000063,270.0000000000012,250.0000000000011,-30.000000000000135,-80.00000000000036
20.00000000000009,60.00000000000027,30.000000000000135,-40.00000000000018,-0.0,40.00000000000018,110.00000000000048,220.00000000000097,410.0000000000018,450.000000000002,40.00000000000018,-40.00000000000018
-0.0,50.00000000000022,20.00000000000009,-30.000000000000135,-0.0,30.000000000000135,90.0000000000004,290.0000000000013,540.0000000000024,670.000000000003,170.00000000000077,50.00000000000022
-0.0,40.00000000000018,-0.0,-10.000000000000044,-0.0,-0.0,10.000000000000044,310.00000000000136,610.0000000000027,860.0000000000039,370.00000000000165,200.00000000000088
-0.0,10.000000000000044,-10.000000000000044,-0.0,-0.0,-10.000000000000044,-160.0000000000007,240.00000000000108,530.0000000000024,950.0000000000042,600.0000000000026,390.0000000000017
10.000000000000044,-0.0,-30.000000000000135,-0.0,20.00000000000009,-20.00000000000009,-420.0000000000019,50.00000000000022,310.00000000000136,830.0000000000036,810.0000000000036,590.0000000000026
-0.0,-10.000000000000044,-30.000000000000135,-0.0,20.00000000000009,-30.000000000000135,-730.0000000000033,-250.0000000000011,-50.00000000000022,530.0000000000024,920.0000000000041,750.0000000000033
-0.0,-30.000000000000135,-40.00000000000018,10.000000000000044,20.00000000000009,-30.000000000000135,-1030.0000000000045,-600.0000000000026,-450.000000000002,100.00000000000044,870.0000000000039,820.0000000000036
10.000000000000044,-30.000000000000135,-40.00000000000018,-0.0,30.000000000000135,-40.00000000000018,-1240.0000000000055,-920.0000000000041,-830.0000000000036,-350.00000000000153,690.0000000000031,760.0000000000034
-0.0,-30.000000000000135,-40.00000000000018,-0.0,20.00000000000009,-40.00000000000018,-1340.000000000006,-1150.000000000005,-1090.0000000000048,-730.0000000000033,420.0000000000019,630.0000000000028
-0.0,-30.000000000000135,-40.00000000000018,10.000000000000044,10.000000000000044,-30.000000000000135,-1280.0000000000057,-1270.0000000000057,-1150.000000000005,-910.0000000000041,140.00000000000063,440.00000000000193
-0.0,-30.000000000000135,-40.00000000000018,10.000000000000044,20.00000000000009,-40.00000000000018,-1120.000000000005,-1200.0000000000052,-1010.0000000000044,-860.0000000000039,-70.00000000000031,260.00000000000114
-0.0,-30.000000000000135,-40.00000000000018,10.000000000000044,10.000000000000044,-30.000000000000135,-900.000000000004,-1020.0000000000045,-790.0000000000035,-700.0000000000031,-180.0000000000008,110.00000000000048
-0.0,-30.000000000000135,-30.000000000000135,10.000000000000044,10.000000000000044,-30.000000000000135,-680.0000000000031,-790.0000000000035,-550.0000000000024,-510.0000000000023,-210.00000000000094,20.00000000000009
-0.0,-30.000000000000135,-40.00000000000018,10.000000000000044,10.000000000000044,-40.00000000000018,-490.00000000000216,-550.0000000000024,-340.00000000000153,-330.0000000000015,-190.00000000000085,-40.00000000000018
-0.0,-40.00000000000018,-50.00000000000022,10.000000000000044,20.00000000000009,-40.00000000000018,-350.00000000000153,-360.0000000000016,-220.00000000000097,-220.00000000000097,-160.0000000000007,-70.00000000000031
-0.0,-40.00000000000018,-60.00000000000027,10.000000000000044,30.000000000000135,-50.00000000000022,-240.00000000000108,-230.00000000000102,-150.00000000000065,-160.0000000000007,-140.00000000000063,-90.0000000000004
-0.0,-50.00000000000022,-80.00000000000036,20.00000000000009,30.000000000000135,-70.00000000000031,-150.00000000000065,-150.00000000000065,-110.00000000000048,-120.00000000000054,-130.00000000000057,-90.0000000000004
-0.0,-70.00000000000031,-80.00000000000036,30.000000000000135,40.00000000000018,-70.00000000000031,-100.00000000000044,-100.00000000000044,-70.00000000000031,-80.00000000000036,-130.00000000000057,-90.0000000000004
-0.0,-70.00000000000031,-80.00000000000036,30.000000000000135,40.00000000000018,-70.00000000000031,-60.00000000000027,-50.00000000000022,-30.000000000000135,-40.00000000000018,-110.00000000000048,-90.0000000000004
-0.0,-70.00000000000031,-90.0000000000004,30.000000000000135,40.00000000000018,-80.00000000000036,-20.00000000000009,-10.000000000000044,10.000000000000044,-20.00000000000009,-100.00000000000044,-90.0000000000004
-0.0,-80.00000000000036,-90.0000000000004,30.000000000000135,40.00000000000018,-80.00000000000036,-0.0,10.000000000000044,30.000000000000135,-0.0,-80.00000000000036,-90.0000000000004
-0.0,-80.00000000000036,-90.0000000000004,30.000000000000135,40.00000000000018,-80.00000000000036,10.000000000000044,30.000000000000135,40.00000000000018,-0.0,-70.00000000000031,-80.00000000000036
-0.0,-80.00000000000036,-90.0000000000004,30.000000000000135,40.00000000000018,-80.00000000000036,20.00000000000009,40.00000000000018,40.00000000000018,-0.0,-70.00000000000031,-80.00000000000036
-0.0,-80.00000000000036,-90.0000000000004,40.00000000000018,40.00000000000018,-90.0000000000004,30.000000000000135,50.00000000000022,60.00000000000027,10.000000000000044,-70.00000000000031,-80.00000000000036
-0.0,-90.0000000000004,-90.0000000000004,40.00000000000018,40.00000000000018,-90.0000000000004,40.00000000000018,60.00000000000027,70.00000000000031,30.000000000000135,-50.00000000000022,-70.00000000000031
-0.0,-90.0000000000004,-90.0000000000004,40.00000000000018,40.00000000000018,-90.0000000000004,60.00000000000027,70.00000000000031,90.0000000000004,40.00000000000018,-40.00000000000018,-60.00000000000027
-0.0,-90.0000000000004,-80.00000000000036,40.00000000000018,40.00000000000018,-80.00000000000036,60.00000000000027,80.00000000000036,100.00000000000044,50.00000000000022,-30.000000000000135,-60.00000000000027
-0.0,-90.0000000000004,-90.0000000000004,40.00000000000018,40.00000000000018,-80.00000000000036,70.00000000000031,90.0000000000004,110.00000000000048,60.00000000000027,-30.000000000000135,-50.00000000000022
-0.0,-80.00000000000036,-90.0000000000004,40.00000000000018,40.00000000000018,-90.0000000000004,80.00000000000036,100.00000000000044,120.00000000000054,70.00000000000031,-20.00000000000009,-50.00000000000022
-0.0,-90.0000000000004,-90.0000000000004,40.00000000000018,30.000000000000135,-90.0000000000004,90.0000000000004,110.00000000000048,120.00000000000054,70.00000000000031,-10.000000000000044,-40.00000000000018
-10.000000000000044,-90.0000000000004,-90.0000000000004,50.00000000000022,30.000000000000135,-90.0000000000004,90.0000000000004,120.00000000000054,130.00000000000057,80.00000000000036,-10.000000000000044,-40.00000000000018
-10.000000000000044,-100.00000000000044,-90.0000000000004,50.00000000000022,30.000000000000135,-90.0000000000004,100.00000000000044,120.00000000000054,140.00000000000063,90.0000000000004,-10.000000000000044,-40.00000000000018
-10.000000000000044,-100.00000000000044,-80.00000000000036,60.00000000000027,30.000000000000135,-90.0000000000004,100.00000000000044,130.00000000000057,140.00000000000063,90.0000000000004,-0.0,-40.00000000000018
-10.000000000000044,-100.00000000000044,-80.00000000000036,50.00000000000022,30.000000000000135,-90.0000000000004,100.00000000000044,140.00000000000063,140.00000000000063,90.0000000000004,-0.0,-30.000000000000135
-0.0,-100.00000000000044,-90.0000000000004,40.00000000000018,40.00000000000018,-90.0000000000004,100.00000000000044,140.00000000000063,140.00000000000063,100.00000000000044,-0.0,-30.000000000000135
-0.0,-90.0000000000004,-80.00000000000036,30.000000000000135,40.00000000000018,-80.00000000000036,100.00000000000044,140.00000000000063,140.00000000000063,100.00000000000044,-0.0,-30.000000000000135
-0.0,-80.00000000000036,-80.00000000000036,20.00000000000009,40.00000000000018,-70.00000000000031,100.00000000000044,140.00000000000063,140.00000000000063,100.00000000000044,-0.0,-30.000000000000135
10.000000000000044,-70.00000000000031,-80.00000000000036,10.000000000000044,40.00000000000018,-70.00000000000031,110.00000000000048,140.00000000000063,140.00000000000063,90.0000000000004,-0.0,-30.000000000000135
-0.0,-60.00000000000027,-70.00000000000031,10.000000000000044,30.000000000000135,-60.00000000000027,110.00000000000048,140.00000000000063,130.00000000000057,90.0000000000004,-0.0,-40.00000000000018
-0.0,-50.00000000000022,-50.00000000000022,10.000000000000044,20.00000000000009,-50.00000000000022,110.00000000000048,140.00000000000063,140.00000000000063,90.0000000000004,-0.0,-40.00000000000018
-0.0,-40.00000000000018,-40.00000000000018,10.000000000000044,20.00000000000009,-40.00000000000018,110.00000000000048,140.00000000000063,140.00000000000063,90.0000000000004,-0.0,-40.00000000000018
-0.0,-40.00000000000018,-30.000000000000135,-0.0,10.000000000000044,-30.000000000000135,120.00000000000054,150.00000000000065,140.00000000000063,90.0000000000004,-0.0,-40.00000000000018
-0.0,-30.000000000000135,-20.00000000000009,-0.0,10.000000000000044,-10.000000000000044,130.00000000000057,160.0000000000007,150.00000000000065,100.00000000000044,-0.0,-40.00000000000018
10.000000000000044,-10.000000000000044,-20.00000000000009,-0.0,10.000000000000044,-10.000000000000044,130.00000000000057,170.00000000000077,160.0000000000007,110.00000000000048,-0.0,-30.000000000000135
10.000000000000044,-0.0,-20.00000000000009,-0.0,20.00000000000009,-10.000000000000044,140.00000000000063,180.0000000000008,170.00000000000077,120.00000000000054,-0.0,-20.00000000000009
10.000000000000044,-10.000000000000044,-20.00000000000009,-0.0,10.000000000000044,-10.000000000000044,150.00000000000065,190.00000000000085,170.00000000000077,120.00000000000054,10.000000000000044,-20.00000000000009
10.000000000000044,-0.0,-0.0,-10.000000000000044,-0.0,-0.0,150.00000000000065,200.00000000000088,180.0000000000008,120.00000000000054,10.000000000000044,-20.00000000000009
-0.0,-0.0,-0.0,-10.000000000000044,-0.0,10.000000000000044,160.0000000000007,210.00000000000094,180.0000000000008,130.00000000000057,10.000000000000044,-20.00000000000009
