I,II,III,aVR,aVL,aVF,V1,V2,V3,V4,V5,V6
80.00000000000036,-50.00000000000022,-130.00000000000057,-10.000000000000044,100.00000000000044,-90.0000000000004,-0.0,-0.0,-10.000000000000044,-10.000000000000044,-0.0,-0.0
90.0000000000004,-40.00000000000018,-130.00000000000057,-20.00000000000009,110.00000000000048,-90.0000000000004,-0.0,-10.000000000000044,-10.000000000000044,-10.000000000000044,-0.0,-0.0
90.0000000000004,-40.00000000000018,-140.00000000000063,-20.00000000000009,110.00000000000048,-90.0000000000004,-0.0,-10.000000000000044,-10.000000000000044,-10.000000000000044,-0.0,-0.0
100.00000000000044,-40.00000000000018,-150.00000000000065,-30.000000000000135,120.00000000000054,-90.0000000000004,-0.0,-10.000000000000044,-10.000000000000044,-10.000000000000044,-0.0,-0.0
110.00000000000048,-40.00000000000018,-150.00000000000065,-30.000000000000135,130.00000000000057,-90.0000000000004,-0.0,-10.000000000000044,-10.000000000000044,-10.000000000000044,-0.0,-0.0
120.00000000000054,-40.00000000000018,-160.0000000000007,-40.00000000000018,140.00000000000063,-100.00000000000044,-0.0,-10.000000000000044,-10.000000000000044,-10.000000000000044,-0.0,-0.0
120.00000000000054,-30.000000000000135,-160.0000000000007,-40.00000000000018,140.00000000000063,-100.00000000000044,-0.0,-10.000000000000044,-10.000000000000044,-10.000000000000044,-0.0,-0.0
130.00000000000057,-30.000000000000135,-170.00000000000077,-40.00000000000018,150.00000000000065,-100.00000000000044,-0.0,-10.000000000000044,-10.000000000000044,-10.000000000000044,-0.0,-0.0
130.00000000000057,-30.000000000000135,-170.00000000000077,-50.00000000000022,150.00000000000065,-100.00000000000044,-0.0,-10.000000000000044,-10.000000000000044,-10.000000000000044,-0.0,-0.0
130.00000000000057,-30.000000000000135,-170.00000000000077,-50.00000000000022,150.00000000000065,-100.00000000000044,-0.0,-10.000000000000044,-10.000000000000044,-10.000000000000044,-0.0,-0.0
140.00000000000063,-30.000000000000135,-180.0000000000008,-50.00000000000022,160.0000000000007,-100.00000000000044,-0.0,-10.000000000000044,-10.000000000000044,-10.000000000000044,-0.0,-0.0
140.00000000000063,-30.000000000000135,-290.0000000000013,-50.00000000000022,160.0000000000007,-100.00000000000044,-0.0,-10.000000000000044,-10.000000000000044,-10.000000000000044,-10.000000000000044,-0.0
150.00000000000065,-30.000000000000135,-290.0000000000013,-50.00000000000022,170.00000000000077,-100.00000000000044,-0.0,-10.000000000000044,-20.00000000000009,-10.000000000000044,-10.000000000000044,-10.000000000000044
150.00000000000065,-30.000000000000135,-290.0000000000013,-60.00000000000027,170.00000000000077,-110.00000000000048,-0.0,-10.000000000000044,-20.00000000000009,-10.000000000000044,-10.000000000000044,-10.000000000000044
150.00000000000065,-30.000000000000135,-290.0000000000013,-60.00000000000027,170.00000000000077,-110.00000000000048,-0.0,-10.000000000000044,-20.00000000000009,-10.000000000000044,-10.000000000000044,-10.000000000000044
160.0000000000007,-30.000000000000135,-290.0000000000013,-60.00000000000027,170.00000000000077,-100.00000000000044,-0.0,-10.000000000000044,-20.00000000000009,-10.000000000000044,-10.000000000000044,-10.000000000000044
160.0000000000007,-20.00000000000009,-190.00000000000085,-70.00000000000031,170.00000000000077,-100.00000000000044,-0.0,-10.000000000000044,-20.00000000000009,-10.000000000000044,-10.000000000000044,-10.000000000000044
160.0000000000007,-20.00000000000009,-180.0000000000008,-70.00000000000031,170.00000000000077,-100.00000000000044,-0.0,-10.000000000000044,-20.00000000000009,-10.000000000000044,-10.000000000000044,-10.000000000000044
160.0000000000007,-20.00000000000009,-180.0000000000008,-70.00000000000031,170.00000000000077,-100.00000000000044,-0.0,-10.000000000000044,-20.00000000000009,-10.000000000000044,-10.000000000000044,-10.000000000000044
160.0000000000007,-10.000000000000044,-170.00000000000077,-70.00000000000031,160.0000000000007,-90.0000000000004,-0.0,-10.000000000000044,-20.00000000000009,-10.000000000000044,-0.0,-0.0
150.00000000000065,-10.000000000000044,-290.0000000000013,-70.00000000000031,160.0000000000007,-90.0000000000004,-0.0,-10.000000000000044,-10.000000000000044,-10.000000000000044,-0.0,-0.0
150.00000000000065,-0.0,-280.00000000000125,-70.00000000000031,150.00000000000065,-80.00000000000036,-0.0,-10.000000000000044,-10.000000000000044,-10.000000000000044,-0.0,-0.0
140.00000000000063,-0.0,-150.00000000000065,-70.00000000000031,140.00000000000063,-70.00000000000031,-0.0,-10.000000000000044,-10.000000000000044,-10.000000000000044,-0.0,-0.0
130.00000000000057,-0.0,-130.00000000000057,-60.00000000000027,130.00000000000057,-60.00000000000027,-0.0,-0.0,-10.000000000000044,-10.000000000000044,-0.0,-0.0
120.00000000000054,-0.0,-120.00000000000054,-60.00000000000027,120.00000000000054,-60.00000000000027,-0.0,-0.0,-10.000000000000044,-10.000000000000044,-0.0,-0.0
110.00000000000048,-0.0,-110.00000000000048,-50.00000000000022,110.00000000000048,-50.00000000000022,-0.0,-0.0,-10.000000000000044,-10.000000000000044,-0.0,-0.0
100.00000000000044,-0.0,-100.00000000000044,-50.00000000000022,100.00000000000044,-50.00000000000022,-0.0,-0.0,-10.000000000000044,-0.0,-0.0,-0.0
80.00000000000036,-0.0,-90.0000000000004,-40.00000000000018,90.0000000000004,-40.00000000000018,-0.0,-0.0,-10.000000000000044,-0.0,-0.0,-0.0
70.00000000000031,-0.0,-80.00000000000036,-30.000000000000135,70.00000000000031,-40.00000000000018,-0.0,-0.0,-10.000000000000044,-0.0,-0.0,-0.0
60.00000000000027,-0.0,-70.00000000000031,-20.00000000000009,60.00000000000027,-40.00000000000018,-0.0,-0.0,-10.000000000000044,-0.0,-0.0,-0.0
40.00000000000018,-10.000000000000044,-60.00000000000027,-20.00000000000009,50.00000000000022,-30.000000000000135,-0.0,-0.0,-10.000000000000044,-0.0,-0.0,-0.0
30.000000000000135,-10.000000000000044,-60.00000000000027,-10.000000000000044,40.00000000000018,-30.000000000000135,10.000000000000044,-0.0,-10.000000000000044,-0.0,-0.0,-0.0
20.00000000000009,-10.000000000000044,-50.00000000000022,-0.0,30.000000000000135,-30.000000000000135,10.000000000000044,-0.0,-10.000000000000044,-0.0,-0.0,-0.0
10.000000000000044,-20.00000000000009,-40.00000000000018,-0.0,30.000000000000135,-30.000000000000135,10.000000000000044,-0.0,-0.0,-0.0,-0.0,-0.0
-0.0,-20.00000000000009,-40.00000000000018,-0.0,20.00000000000009,-30.000000000000135,10.000000000000044,-0.0,-0.0,-0.0,-0.0,-0.0
-0.0,-30.000000000000135,-30.000000000000135,10.000000000000044,10.000000000000044,-30.000000000000135,10.000000000000044,-0.0,-0.0,-0.0,-0.0,-0.0
-0.0,-30.000000000000135,-30.000000000000135,20.00000000000009,-0.0,-30.000000000000135,10.000000000000044,-0.0,-0.0,-0.0,10.000000000000044,10.000000000000044
-10.000000000000044,-30.000000000000135,-20.00000000000009,20.00000000000009,-0.0,-30.000000000000135,10.000000000000044,-0.0,-0.0,-0.0,10.000000000000044,10.000000000000044
-10.000000000000044,-40.00000000000018,-20.00000000000009,20.00000000000009,-0.0,-30.000000000000135,20.00000000000009,-0.0,10.000000000000044,-0.0,10.000000000000044,10.000000000000044
-10.000000000000044,-40.00000000000018,-20.00000000000009,20.00000000000009,-0.0,-30.000000000000135,20.00000000000009,10.000000000000044,10.000000000000044,-0.0,20.00000000000009,20.00000000000009
-10.000000000000044,-40.00000000000018,-20.00000000000009,20.00000000000009,-0.0,-20.00000000000009,30.000000000000135,10.000000000000044,20.00000000000009,10.000000000000044,30.000000000000135,20.00000000000009
-10.000000000000044,-30.000000000000135,-10.000000000000044,20.00000000000009,-0.0,-20.00000000000009,30.000000000000135,20.00000000000009,30.000000000000135,10.000000000000044,30.000000000000135,20.00000000000009
-10.000000000000044,-30.000000000000135,-0.0,10.000000000000044,-0.0,-10.000000000000044,30.000000000000135,20.00000000000009,30.000000000000135,20.00000000000009,40.00000000000018,30.000000000000135
-10.000000000000044,-20.00000000000009,-0.0,10.000000000000044,-0.0,-0.0,30.000000000000135,20.00000000000009,30.000000000000135,20.00000000000009,40.00000000000018,30.000000000000135
-0.0,-10.000000000000044,-0.0,-0.0,-0.0,-0.0,30.000000000000135,20.00000000000009,40.00000000000018,20.00000000000009,50.00000000000022,40.00000000000018
-0.0,-0.0,-0.0,-0.0,-0.0,-0.0,20.00000000000009,10.000000000000044,40.00000000000018,30.000000000000135,60.00000000000027,40.00000000000018
-0.0,-0.0,10.000000000000044,-0.0,-0.0,10.000000000000044,10.000000000000044,10.000000000000044,40.00000000000018,30.000000000000135,60.00000000000027,50.00000000000022
-0.0,10.000000000000044,20.00000000000009,-0.0,-10.000000000000044,10.000000000000044,-0.0,-0.0,40.00000000000018,30.000000000000135,70.00000000000031,60.00000000000027
-0.0,10.000000000000044,20.00000000000009,-10.000000000000044,-10.000000000000044,20.00000000000009,-0.0,-0.0,40.00000000000018,30.000000000000135,80.00000000000036,60.00000000000027
-0.0,20.00000000000009,30.000000000000135,-10.000000000000044,-10.000000000000044,30.000000000000135,-0.0,-0.0,40.00000000000018,40.00000000000018,80.00000000000036,70.00000000000031
-0.0,30.000000000000135,40.00000000000018,-20.00000000000009,-20.00000000000009,40.00000000000018,-0.0,-0.0,40.00000000000018,40.00000000000018,90.0000000000004,70.00000000000031
-0.0,40.00000000000018,40.00000000000018,-20.00000000000009,-20.00000000000009,40.00000000000018,-0.0,-0.0,40.00000000000018,40.00000000000018,90.0000000000004,80.00000000000036
-0.0,40.00000000000018,40.00000000000018,-20.00000000000009,-20.00000000000009,40.00000000000018,-10.000000000000044,-500.0000000000022,30.000000000000135,40.00000000000018,90.0000000000004,80.00000000000036
-0.0,50.00000000000022,40.00000000000018,-30.000000000000135,-20.00000000000009,50.00000000000022,-10.000000000000044,-500.0000000000022,30.000000000000135,30.000000000000135,90.0000000000004,80.00000000000036
10.000000000000044,50.00000000000022,40.00000000000018,-30.000000000000135,-10.000000000000044,50.00000000000022,-10.000000000000044,-500.0000000000022,20.00000000000009,30.000000000000135,80.00000000000036,70.00000000000031
10.000000000000044,50.00000000000022,30.000000000000135,-40.00000000000018,-10.000000000000044,40.00000000000018,-10.000000000000044,-500.0000000000022,10.000000000000044,10.000000000000044,80.00000000000036,60.00000000000027
20.00000000000009,60.00000000000027,30.000000000000135,-40.00000000000018,-0.0,40.00000000000018,-10.000000000000044,-500.0000000000022,-0.0,-0.0,60.00000000000027,50.00000000000022
20.00000000000009,60.00000000000027,30.000000000000135,-40.00000000000018,-0.0,40.00000000000018,-10.000000000000044,-500.0000000000022,-0.0,-0.0,50.00000000000022,40.00000000000018
30.000000000000135,60.00000000000027,20.00000000000009,-50.00000000000022,-0.0,40.00000000000018,-10.000000000000044,-500.0000000000022,-20.00000000000009,-20.00000000000009,40.00000000000018,30.000000000000135
40.00000000000018,60.00000000000027,20.00000000000009,-50.00000000000022,-0.0,40.00000000000018,-10.000000000000044,-500.0000000000022,-30.000000000000135,-30.000000000000135,20.00000000000009,10.000000000000044
40.00000000000018,60.00000000000027,10.000000000000044,-50.00000000000022,10.000000000000044,40.00000000000018,-10.000000000000044,-500.0000000000022,-40.00000000000018,-40.00000000000018,10.000000000000044,-0.0
40.00000000000018,60.00000000000027,10.000000000000044,-60.00000000000027,10.000000000000044,40.00000000000018,-10.000000000000044,-500.0000000000022,-50.00000000000022,-50.00000000000022,-0.0,-0.0
50.00000000000022,70.00000000000031,10.000000000000044,-60.00000000000027,10.000000000000044,40.00000000000018,-0.0,-500.0000000000022,-50.00000000000022,-60.00000000000027,-0.0,-0.0
50.00000000000022,70.00000000000031,10.000000000000044,-60.00000000000027,10.000000000000044,40.00000000000018,-0.0,-500.0000000000022,-60.00000000000027,-60.00000000000027,-0.0,-0.0
50.00000000000022,70.00000000000031,10.000000000000044,-60.00000000000027,10.000000000000044,40.00000000000018,-0.0,-500.0000000000022,-60.00000000000027,-70.00000000000031,-0.0,-0.0
50.00000000000022,70.00000000000031,10.000000000000044,-60.00000000000027,10.000000000000044,40.00000000000018,-0.0,-500.0000000000022,-60.00000000000027,-60.00000000000027,-0.0,-0.0
50.00000000000022,60.00000000000027,10.000000000000044,-60.00000000000027,10.000000000000044,30.000000000000135,-0.0,-500.0000000000022,-70.00000000000031,-60.00000000000027,-0.0,-0.0
50.00000000000022,60.00000000000027,-0.0,-50.00000000000022,10.000000000000044,30.000000000000135,-0.0,-500.0000000000022,-70.00000000000031,-70.00000000000031,-0.0,-0.0
50.00000000000022,60.00000000000027,-0.0,-50.00000000000022,20.00000000000009,20.00000000000009,-0.0,-500.0000000000022,-80.00000000000036,-70.00000000000031,-0.0,-0.0
50.00000000000022,50.00000000000022,-0.0,-50.00000000000022,20.00000000000009,20.00000000000009,-0.0,-500.0000000000022,-60.00000000000027,-70.00000000000031,-10.000000000000044,-10.000000000000044
40.00000000000018,40.00000000000018,-0.0,-40.00000000000018,20.00000000000009,10.000000000000044,20.00000000000009,-500.0000000000022,-10.000000000000044,-70.00000000000031,-30.000000000000135,-30.000000000000135
40.00000000000018,40.00000000000018,-0.0,-40.00000000000018,20.00000000000009,10.000000000000044,50.00000000000022,-500.0000000000022,70.00000000000031,-40.00000000000018,-40.00000000000018,-40.00000000000018
40.00000000000018,40.00000000000018,-10.000000000000044,-40.00000000000018,20.00000000000009,10.000000000000044,80.00000000000036,-500.0000000000022,180.0000000000008,20.00000000000009,-40.00000000000018,-40.00000000000018
40.00000000000018,30.000000000000135,-10.000000000000044,-40.00000000000018,20.00000000000009,-0.0,120.00000000000054,-500.0000000000022,310.00000000000136,120.00000000000054,-20.00000000000009,-20.00000000000009
40.00000000000018,30.000000000000135,-10.000000000000044,-30.000000000000135,30.000000000000135,-0.0,140.00000000000063,-500.0000000000022,440.00000000000193,280.00000000000125,50.00000000000022,30.000000000000135
40.00000000000018,30.000000000000135,-10.000000000000044,-30.000000000000135,30.000000000000135,-0.0,120.00000000000054,-500.0000000000022,540.0000000000024,500.0000000000022,180.0000000000008,150.00000000000065
40.00000000000018,20.00000000000009,-10.000000000000044,-30.000000000000135,20.00000000000009,-0.0,60.00000000000027,-500.0000000000022,580.0000000000026,760.0000000000034,380.0000000000017,330.0000000000015
30.000000000000135,20.00000000000009,-10.000000000000044,-30.000000000000135,20.00000000000009,-0.0,-30.000000000000135,-500.0000000000022,540.0000000000024,1040.0000000000045,650.0000000000028,550.0000000000024
30.000000000000135,20.00000000000009,-10.000000000000044,-30.000000000000135,20.00000000000009,-0.0,-170.00000000000077,-500.0000000000022,440.00000000000193,1290.0000000000057,950.0000000000042,800.0000000000035
30.000000000000135,20.00000000000009,-10.000000000000044,-20.00000000000009,20.00000000000009,-0.0,-330.0000000000015,-500.0000000000022,300.0000000000013,1480.0000000000066,1240.0000000000055,1040.0000000000045
30.000000000000135,20.00000000000009,-10.000000000000044,-20.00000000000009,10.000000000000044,-0.0,-470.0000000000021,-510.0000000000023,130.00000000000057,1580.000000000007,1480.0000000000066,1230.0000000000055
30.000000000000135,20.00000000000009,-0.0,-20.00000000000009,10.000000000000044,-0.0,-580.0000000000026,-500.0000000000022,-40.00000000000018,1550.0000000000068,1610.000000000007,1330.000000000006
30.000000000000135,20.00000000000009,-0.0,-20.00000000000009,10.000000000000044,-0.0,-640.0000000000028,-500.0000000000022,-190.00000000000085,1410.0000000000064,1640.0000000000073,1340.000000000006
30.000000000000135,20.00000000000009,-0.0,-20.00000000000009,10.000000000000044,-0.0,-650.0000000000028,-500.0000000000022,-310.00000000000136,1190.0000000000052,1530.0000000000068,1250.0000000000055
20.00000000000009,20.00000000000009,-10.000000000000044,-20.00000000000009,10.000000000000044,-0.0,-610.0000000000027,-500.0000000000022,-390.0000000000017,920.0000000000041,1340.000000000006,1090.0000000000048
20.00000000000009,10.000000000000044,-10.000000000000044,-10.000000000000044,10.000000000000044,-0.0,-530.0000000000024,-500.0000000000022,-430.00000000000193,630.0000000000028,1090.0000000000048,880.0000000000039
20.00000000000009,10.000000000000044,-10.000000000000044,-10.000000000000044,10.000000000000044,-0.0,-440.00000000000193,-500.0000000000022,-420.0000000000019,380.0000000000017,830.0000000000036,660.000000000003
10.000000000000044,-0.0,-10.000000000000044,-10.000000000000044,10.000000000000044,-0.0,-340.00000000000153,-500.0000000000022,-370.00000000000165,170.00000000000077,570.0000000000025,460.00000000000205
10.000000000000044,-0.0,-10.000000000000044,-0.0,10.000000000000044,-0.0,-240.00000000000108,-500.0000000000022,-310.00000000000136,30.000000000000135,340.00000000000153,280.00000000000125
10.000000000000044,-0.0,-10.000000000000044,-0.0,10.000000000000044,-0.0,-150.00000000000065,-470.0000000000021,-240.00000000000108,-70.00000000000031,170.00000000000077,140.00000000000063
-0.0,-0.0,-0.0,-0.0,-0.0,-0.0,-80.00000000000036,-340.00000000000153,-180.0000000000008,-130.00000000000057,40.00000000000018,40.00000000000018
-0.0,-0.0,-0.0,-0.0,-0.0,-0.0,-30.000000000000135,-230.00000000000102,-130.00000000000057,-150.00000000000065,-30.000000000000135,-10.000000000000044
-0.0,-0.0,-0.0,-0.0,-0.0,-0.0,-0.0,-160.0000000000007,-100.00000000000044,-140.00000000000063,-70.00000000000031,-40.00000000000018
-0.0,-0.0,-0.0,-0.0,-0.0,-0.0,-0.0,-110.00000000000048,-70.00000000000031,-120.00000000000054,-70.00000000000031,-40.00000000000018
-0.0,-0.0,-10.000000000000044,-0.0,-0.0,-0.0,10.000000000000044,-70.00000000000031,-50.00000000000022,-100.00000000000044,-70.00000000000031,-40.00000000000018
-0.0,-0.0,-0.0,-0.0,-0.0,-0.0,20.00000000000009,-50.00000000000022,-40.00000000000018,-80.00000000000036,-70.00000000000031,-40.00000000000018
-0.0,-0.0,-10.000000000000044,-0.0,-0.0,-0.0,30.000000000000135,-30.000000000000135,-20.00000000000009,-80.00000000000036,-70.00000000000031,-50.00000000000022
-0.0,-0.0,-10.000000000000044,-0.0,-0.0,-10.000000000000044,40.00000000000018,-10.000000000000044,-10.000000000000044,-80.00000000000036,-80.00000000000036,-50.00000000000022
-0.0,-10.000000000000044,-10.000000000000044,-0.0,-0.0,-10.000000000000044,50.00000000000022,-0.0,-0.0,-80.00000000000036,-80.00000000000036,-60.00000000000027
-0.0,-10.000000000000044,-10.000000000000044,-0.0,-0.0,-10.000000000000044,60.00000000000027,10.000000000000044,-0.0,-70.00000000000031,-80.00000000000036,-60.00000000000027
-0.0,-20.00000000000009,-10.000000000000044,10.000000000000044,-0.0,-10.000000000000044,60.00000000000027,30.000000000000135,10.000000000000044,-60.00000000000027,-80.00000000000036,-60.00000000000027
-10.000000000000044,-20.00000000000009,-10.000000000000044,10.000000000000044,-0.0,-20.00000000000009,60.00000000000027,40.00000000000018,30.000000000000135,-40.00000000000018,-80.00000000000036,-50.00000000000022
-10.000000000000044,-20.00000000000009,-10.000000000000044,20.00000000000009,-0.0,-20.00000000000009,70.00000000000031,60.00000000000027,40.00000000000018,-30.000000000000135,-70.00000000000031,-50.00000000000022
-20.00000000000009,-30.000000000000135,-0.0,20.00000000000009,-0.0,-10.000000000000044,70.00000000000031,80.00000000000036,50.00000000000022,-20.00000000000009,-70.00000000000031,-50.00000000000022
-20.00000000000009,-20.00000000000009,-0.0,20.00000000000009,-10.000000000000044,-10.000000000000044,70.00000000000031,90.0000000000004,60.00000000000027,-10.000000000000044,-60.00000000000027,-50.00000000000022
-20.00000000000009,-20.00000000000009,-0.0,20.00000000000009,-10.000000000000044,-0.0,70.00000000000031,110.00000000000048,70.00000000000031,-0.0,-60.00000000000027,-50.00000000000022
-20.00000000000009,-20.00000000000009,-0.0,10.000000000000044,-10.000000000000044,-0.0,70.00000000000031,130.00000000000057,90.0000000000004,-0.0,-60.00000000000027,-50.00000000000022
-10.000000000000044,-10.000000000000044,-0.0,10.000000000000044,-0.0,-0.0,70.00000000000031,140.00000000000063,110.00000000000048,-0.0,-60.00000000000027,-50.00000000000022
-10.000000000000044,-10.000000000000044,-0.0,-0.0,-0.0,-0.0,70.00000000000031,160.0000000000007,120.00000000000054,10.000000000000044,-50.00000000000022,-40.00000000000018
-10.000000000000044,-10.000000000000044,-0.0,-0.0,-0.0,-0.0,70.00000000000031,180.0000000000008,140.00000000000063,10.000000000000044,-50.00000000000022,-40.00000000000018
-0.0,-0.0,-0.0,-0.0,-0.0,-0.0,70.00000000000031,190.00000000000085,150.00000000000065,20.00000000000009,-50.00000000000022,-40.00000000000018
-0.0,-0.0,-0.0,-0.0,-0.0,-0.0,70.00000000000031,210.00000000000094,170.00000000000077,30.000000000000135,-50.00000000000022,-40.00000000000018
-10.000000000000044,-0.0,-0.0,-0.0,-10.000000000000044,-0.0,70.00000000000031,220.00000000000097,190.00000000000085,40.00000000000018,-40.00000000000018,-40.00000000000018
-10.000000000000044,-0.0,10.000000000000044,-0.0,-10.000000000000044,-0.0,70.00000000000031,230.00000000000102,200.00000000000088,50.00000000000022,-40.00000000000018,-40.00000000000018
-20.00000000000009,-0.0,10.000000000000044,-0.0,-10.000000000000044,-0.0,70.00000000000031,240.00000000000108,220.00000000000097,60.00000000000027,-40.00000000000018,-30.000000000000135
-20.00000000000009,-0.0,10.000000000000044,10.000000000000044,-20.00000000000009,-0.0,80.00000000000036,250.0000000000011,230.00000000000102,70.00000000000031,-30.000000000000135,-30.000000000000135
-20.00000000000009,-0.0,10.000000000000044,10.000000000000044,-20.00000000000009,-0.0,80.00000000000036,270.0000000000012,240.00000000000108,80.00000000000036,-30.000000000000135,-30.000000000000135
-30.000000000000135,-0.0,20.00000000000009,10.000000000000044,-20.00000000000009,-0.0,80.00000000000036,280.00000000000125,260.00000000000114,90.0000000000004,-20.00000000000009,-20.00000000000009
-30.000000000000135,-0.0,20.00000000000009,10.000000000000044,-30.000000000000135,-0.0,80.00000000000036,290.0000000000013,270.0000000000012,100.00000000000044,-20.00000000000009,-20.00000000000009
-30.000000000000135,-0.0,20.00000000000009,20.00000000000009,-30.000000000000135,-0.0,80.00000000000036,300.0000000000013,290.0000000000013,110.00000000000048,-20.00000000000009,-20.00000000000009
-30.000000000000135,-0.0,20.00000000000009,10.000000000000044,-30.000000000000135,-0.0,80.00000000000036,310.00000000000136,300.0000000000013,120.00000000000054,-10.000000000000044,-10.000000000000044
-30.000000000000135,-0.0,30.000000000000135,10.000000000000044,-30.000000000000135,10.000000000000044,80.00000000000036,330.0000000000015,310.00000000000136,130.00000000000057,-10.000000000000044,-10.000000000000044
-30.000000000000135,-0.0,20.00000000000009,10.000000000000044,-30.000000000000135,10.000000000000044,80.00000000000036,340.00000000000153,330.0000000000015,140.00000000000063,-10.000000000000044,-10.000000000000044
-30.000000000000135,-0.0,20.00000000000009,10.000000000000044,-20.00000000000009,-0.0,80.00000000000036,350.00000000000153,340.00000000000153,150.00000000000065,-10.000000000000044,-10.000000000000044
-20.00000000000009,-0.0,20.00000000000009,10.000000000000044,-20.00000000000009,10.000000000000044,80.00000000000036,370.00000000000165,360.0000000000016,170.00000000000077,-10.000000000000044,-10.000000000000044
-20.00000000000009,-0.0,20.00000000000009,-0.0,-20.00000000000009,10.000000000000044,80.00000000000036,380.0000000000017,390.0000000000017,180.0000000000008,-0.0,-0.0
-10.000000000000044,-0.0,30.000000000000135,-0.0,-20.00000000000009,20.00000000000009,80.00000000000036,400.00000000000176,410.0000000000018,200.00000000000088,-0.0,-0.0
-10.000000000000044,10.000000000000044,40.00000000000018,-10.000000000000044,-20.00000000000009,30.000000000000135,80.00000000000036,420.0000000000019,430.00000000000193,210.00000000000094,-0.0,-0.0
-0.0,20.00000000000009,50.00000000000022,-20.00000000000009,-20.00000000000009,40.00000000000018,80.00000000000036,440.00000000000193,450.000000000002,230.00000000000102,-0.0,-0.0
-0.0,40.00000000000018,60.00000000000027,-30.000000000000135,-30.000000000000135,60.00000000000027,80.00000000000036,460.00000000000205,480.00000000000216,250.0000000000011,10.000000000000044,-0.0
-0.0,60.00000000000027,70.00000000000031,-40.00000000000018,-30.000000000000135,70.00000000000031,80.00000000000036,480.00000000000216,500.0000000000022,260.00000000000114,10.000000000000044,-0.0
-0.0,80.00000000000036,90.0000000000004,-50.00000000000022,-40.00000000000018,90.0000000000004,80.00000000000036,500.0000000000022,530.0000000000024,280.00000000000125,20.00000000000009,10.000000000000044
10.000000000000044,90.0000000000004,100.00000000000044,-60.00000000000027,-50.00000000000022,100.00000000000044,80.00000000000036,520.0000000000023,550.0000000000024,300.0000000000013,30.000000000000135,10.000000000000044
10.000000000000044,110.00000000000048,120.00000000000054,-80.00000000000036,-50.00000000000022,120.00000000000054,70.00000000000031,550.0000000000024,580.0000000000026,320.0000000000014,30.000000000000135,20.00000000000009
10.000000000000044,130.00000000000057,130.00000000000057,-90.0000000000004,-60.00000000000027,140.00000000000063,70.00000000000031,570.0000000000025,610.0000000000027,340.00000000000153,40.00000000000018,20.00000000000009
20.00000000000009,150.00000000000065,150.00000000000065,-100.00000000000044,-60.00000000000027,160.0000000000007,70.00000000000031,600.0000000000026,630.0000000000028,360.0000000000016,50.00000000000022,30.000000000000135
20.00000000000009,170.00000000000077,160.0000000000007,-110.00000000000048,-60.00000000000027,170.00000000000077,70.00000000000031,620.0000000000027,660.000000000003,380.0000000000017,60.00000000000027,40.00000000000018
30.000000000000135,190.00000000000085,170.00000000000077,-120.00000000000054,-70.00000000000031,190.00000000000085,70.00000000000031,640.0000000000028,680.0000000000031,400.00000000000176,70.00000000000031,50.00000000000022
30.000000000000135,200.00000000000088,180.0000000000008,-120.00000000000054,-70.00000000000031,190.00000000000085,70.00000000000031,660.000000000003,700.0000000000031,420.0000000000019,90.0000000000004,60.00000000000027
30.000000000000135,210.00000000000094,180.0000000000008,-130.00000000000057,-70.00000000000031,200.00000000000088,70.00000000000031,680.0000000000031,720.0000000000032,430.00000000000193,100.00000000000044,60.00000000000027
40.00000000000018,220.00000000000097,180.0000000000008,-130.00000000000057,-70.00000000000031,200.00000000000088,70.00000000000031,690.0000000000031,730.0000000000033,450.000000000002,110.00000000000048,70.00000000000031
40.00000000000018,220.00000000000097,180.0000000000008,-130.00000000000057,-70.00000000000031,200.00000000000088,70.00000000000031,710.0000000000032,740.0000000000033,460.00000000000205,120.00000000000054,80.00000000000036
40.00000000000018,220.00000000000097,170.00000000000077,-120.00000000000054,-60.00000000000027,190.00000000000085,60.00000000000027,720.0000000000032,750.0000000000033,470.0000000000021,130.00000000000057,90.0000000000004
30.000000000000135,210.00000000000094,150.00000000000065,-120.00000000000054,-60.00000000000027,170.00000000000077,60.00000000000027,720.0000000000032,760.0000000000034,480.00000000000216,140.00000000000063,100.00000000000044
30.000000000000135,190.00000000000085,140.00000000000063,-100.00000000000044,-50.00000000000022,150.00000000000065,60.00000000000027,720.0000000000032,760.0000000000034,490.00000000000216,150.00000000000065,110.00000000000048
10.000000000000044,170.00000000000077,120.00000000000054,-90.0000000000004,-50.00000000000022,130.00000000000057,50.00000000000022,720.0000000000032,760.0000000000034,490.00000000000216,160.0000000000007,130.00000000000057
-0.0,150.00000000000065,100.00000000000044,-70.00000000000031,-50.00000000000022,110.00000000000048,50.00000000000022,720.0000000000032,760.0000000000034,500.0000000000022,170.00000000000077,140.00000000000063
-0.0,120.00000000000054,90.0000000000004,-50.00000000000022,-50.00000000000022,90.0000000000004,50.00000000000022,710.0000000000032,750.0000000000033,500.0000000000022,180.0000000000008,150.00000000000065
-0.0,90.0000000000004,80.00000000000036,-30.000000000000135,-40.00000000000018,70.00000000000031,50.00000000000022,690.0000000000031,730.0000000000033,490.00000000000216,190.00000000000085,150.00000000000065
-10.000000000000044,70.00000000000031,60.00000000000027,-20.00000000000009,-40.00000000000018,50.00000000000022,50.00000000000022,670.000000000003,710.0000000000032,480.00000000000216,200.00000000000088,160.0000000000007
-20.00000000000009,50.00000000000022,50.00000000000022,-0.0,-30.000000000000135,40.00000000000018,50.00000000000022,650.0000000000028,680.0000000000031,470.0000000000021,210.00000000000094,170.00000000000077
-20.00000000000009,30.000000000000135,40.00000000000018,-0.0,-30.000000000000135,30.000000000000135,40.00000000000018,620.0000000000027,640.0000000000028,450.000000000002,210.00000000000094,170.00000000000077
-30.000000000000135,10.000000000000044,40.00000000000018,-0.0,-30.000000000000135,20.00000000000009,40.00000000000018,580.0000000000026,600.0000000000026,430.00000000000193,210.00000000000094,160.0000000000007
-40.00000000000018,-0.0,30.000000000000135,10.000000000000044,-30.000000000000135,10.000000000000044,30.000000000000135,540.0000000000024,560.0000000000025,400.00000000000176,200.00000000000088,150.00000000000065
-40.00000000000018,-0.0,30.000000000000135,20.00000000000009,-30.000000000000135,-0.0,30.000000000000135,500.0000000000022,520.0000000000023,370.00000000000165,200.00000000000088,140.00000000000063
-50.00000000000022,-10.000000000000044,30.000000000000135,30.000000000000135,-40.00000000000018,-0.0,30.000000000000135,460.00000000000205,470.0000000000021,340.00000000000153,190.00000000000085,140.00000000000063
-50.00000000000022,-10.000000000000044,30.000000000000135,30.000000000000135,-40.00000000000018,-0.0,30.000000000000135,410.0000000000018,420.0000000000019,310.00000000000136,170.00000000000077,130.00000000000057
-50.00000000000022,-20.00000000000009,20.00000000000009,40.00000000000018,-40.00000000000018,-0.0,30.000000000000135,370.00000000000165,370.00000000000165,280.00000000000125,160.0000000000007,120.00000000000054
-60.00000000000027,-30.000000000000135,10.000000000000044,40.00000000000018,-40.00000000000018,-10.000000000000044,30.000000000000135,320.0000000000014,320.0000000000014,240.00000000000108,150.00000000000065,110.00000000000048
-70.00000000000031,-40.00000000000018,10.000000000000044,50.00000000000022,-40.00000000000018,-10.000000000000044,30.000000000000135,280.00000000000125,280.00000000000125,210.00000000000094,140.00000000000063,100.00000000000044
-80.00000000000036,-50.00000000000022,10.000000000000044,60.00000000000027,-40.00000000000018,-20.00000000000009,30.000000000000135,240.00000000000108,240.00000000000108,180.0000000000008,120.00000000000054,90.0000000000004
-80.00000000000036,-60.00000000000027,10.000000000000044,70.00000000000031,-40.00000000000018,-20.00000000000009,30.000000000000135,210.00000000000094,200.00000000000088,150.00000000000065,110.00000000000048,80.00000000000036
-70.00000000000031,-60.00000000000027,30.000000000000135,50.00000000000022,-50.00000000000022,-0.0,30.000000000000135,170.00000000000077,160.0000000000007,120.00000000000054,90.0000000000004,60.00000000000027
-50.00000000000022,-40.00000000000018,60.00000000000027,10.000000000000044,-50.00000000000022,40.00000000000018,30.000000000000135,140.00000000000063,130.00000000000057,100.00000000000044,80.00000000000036,50.00000000000022
-10.000000000000044,10.000000000000044,120.00000000000054,-50.00000000000022,-60.00000000000027,110.00000000000048,20.00000000000009,110.00000000000048,100.00000000000044,70.00000000000031,60.00000000000027,40.00000000000018
50.00000000000022,100.00000000000044,200.00000000000088,-150.00000000000065,-70.00000000000031,220.00000000000097,20.00000000000009,90.0000000000004,80.00000000000036,50.00000000000022,50.00000000000022,20.00000000000009
120.00000000000054,250.0000000000011,300.0000000000013,-280.00000000000125,-90.0000000000004,360.0000000000016,20.00000000000009,70.00000000000031,60.00000000000027,40.00000000000018,40.00000000000018,10.000000000000044
210.00000000000094,430.00000000000193,430.00000000000193,-430.00000000000193,-110.00000000000048,530.0000000000024,10.000000000000044,50.00000000000022,40.00000000000018,20.00000000000009,20.00000000000009,-0.0
290.0000000000013,640.0000000000028,560.0000000000025,-580.0000000000026,-130.00000000000057,710.0000000000032,10.000000000000044,30.000000000000135,20.00000000000009,10.000000000000044,10.000000000000044,-0.0
360.0000000000016,860.0000000000039,680.0000000000031,-700.0000000000031,-160.0000000000007,860.0000000000039,-0.0,20.00000000000009,10.000000000000044,-0.0,-0.0,-10.000000000000044
400.00000000000176,1040.0000000000045,760.0000000000034,-790.0000000000035,-180.0000000000008,960.0000000000043,-0.0,10.000000000000044,-0.0,-0.0,-0.0,-20.00000000000009
400.00000000000176,1170.0000000000052,810.0000000000036,-820.0000000000036,-200.00000000000088,1010.0000000000044,-0.0,-0.0,-0.0,-10.000000000000044,-0.0,-30.000000000000135
370.00000000000165,1220.0000000000055,800.0000000000035,-780.0000000000034,-210.00000000000094,990.0000000000044,-0.0,-0.0,-0.0,-20.00000000000009,-10.000000000000044,-30.000000000000135
320.0000000000014,1180.0000000000052,750.0000000000033,-700.0000000000031,-210.00000000000094,910.0000000000041,-10.000000000000044,-0.0,-10.000000000000044,-20.00000000000009,-10.000000000000044,-40.00000000000018
240.00000000000108,1070.0000000000048,670.000000000003,-580.0000000000026,-210.00000000000094,800.0000000000035,-10.000000000000044,-10.000000000000044,-10.000000000000044,-20.00000000000009,-20.00000000000009,-50.00000000000022
150.00000000000065,920.0000000000041,570.0000000000025,-450.000000000002,-210.00000000000094,650.0000000000028,-10.000000000000044,-10.000000000000044,-10.000000000000044,-20.00000000000009,-20.00000000000009,-50.00000000000022
80.00000000000036,740.0000000000033,460.00000000000205,-320.0000000000014,-190.00000000000085,500.0000000000022,-10.000000000000044,-10.000000000000044,-10.000000000000044,-20.00000000000009,-20.00000000000009,-50.00000000000022
20.00000000000009,550.0000000000024,350.00000000000153,-200.00000000000088,-160.0000000000007,360.0000000000016,-10.000000000000044,-10.000000000000044,-10.000000000000044,-20.00000000000009,-20.00000000000009,-60.00000000000027
-30.000000000000135,370.00000000000165,250.0000000000011,-100.00000000000044,-140.00000000000063,240.00000000000108,-10.000000000000044,-10.000000000000044,-0.0,-20.00000000000009,-20.00000000000009,-60.00000000000027
-60.00000000000027,220.00000000000097,170.00000000000077,-30.000000000000135,-120.00000000000054,140.00000000000063,-10.000000000000044,-0.0,-0.0,-20.00000000000009,-20.00000000000009,-50.00000000000022
-80.00000000000036,110.00000000000048,100.00000000000044,20.00000000000009,-100.00000000000044,60.00000000000027,-10.000000000000044,-0.0,-0.0,-20.00000000000009,-20.00000000000009,-50.00000000000022
-80.00000000000036,30.000000000000135,60.00000000000027,40.00000000000018,-80.00000000000036,20.00000000000009,-10.000000000000044,-0.0,-0.0,-20.00000000000009,-20.00000000000009,-50.00000000000022
-80.00000000000036,-20.00000000000009,30.000000000000135,60.00000000000027,-60.00000000000027,-0.0,-10.000000000000044,-0.0,-0.0,-20.00000000000009,-20.00000000000009,-50.00000000000022
-80.00000000000036,-50.00000000000022,20.00000000000009,70.00000000000031,-50.00000000000022,-20.00000000000009,-10.000000000000044,-0.0,-0.0,-20.00000000000009,-20.00000000000009,-50.00000000000022
-80.00000000000036,-60.00000000000027,10.000000000000044,70.00000000000031,-50.00000000000022,-20.00000000000009,-10.000000000000044,-0.0,-0.0,-20.00000000000009,-20.00000000000009,-50.00000000000022
-80.00000000000036,-70.00000000000031,-0.0,80.00000000000036,-40.00000000000018,-30.000000000000135,-20.00000000000009,-0.0,-0.0,-20.00000000000009,-20.00000000000009,-50.00000000000022
-80.00000000000036,-80.00000000000036,-0.0,80.00000000000036,-40.00000000000018,-40.00000000000018,-20.00000000000009,-0.0,-0.0,-20.00000000000009,-20.00000000000009,-50.00000000000022
-80.00000000000036,-80.00000000000036,-0.0,80.00000000000036,-40.00000000000018,-40.00000000000018,-20.00000000000009,-0.0,-0.0,-20.00000000000009,-20.00000000000009,-50.00000000000022
-80.00000000000036,-80.00000000000036,-0.0,80.00000000000036,-40.00000000000018,-40.00000000000018,-20.00000000000009,-0.0,-0.0,-20.00000000000009,-20.00000000000009,-50.00000000000022
-80.00000000000036,-90.0000000000004,-0.0,80.00000000000036,-30.000000000000135,-40.00000000000018,-30.000000000000135,-0.0,-0.0,-20.00000000000009,-20.00000000000009,-50.00000000000022
-80.00000000000036,-90.0000000000004,-0.0,80.00000000000036,-30.000000000000135,-40.00000000000018,-30.000000000000135,-0.0,-0.0,-20.00000000000009,-20.00000000000009,-50.00000000000022
-70.00000000000031,-90.0000000000004,-10.000000000000044,70.00000000000031,-30.000000000000135,-40.00000000000018,-30.000000000000135,-0.0,-0.0,-20.00000000000009,-20.00000000000009,-50.00000000000022
-60.00000000000027,-80.00000000000036,-10.000000000000044,70.00000000000031,-20.00000000000009,-40.00000000000018,-30.000000000000135,-0.0,-0.0,-20.00000000000009,-20.00000000000009,-50.00000000000022
-60.00000000000027,-80.00000000000036,-10.000000000000044,60.00000000000027,-20.00000000000009,-40.00000000000018,-40.00000000000018,-0.0,-0.0,-20.00000000000009,-20.00000000000009,-50.00000000000022
-50.00000000000022,-70.00000000000031,-10.000000000000044,60.00000000000027,-10.000000000000044,-40.00000000000018,-40.00000000000018,-0.0,-0.0,-20.00000000000009,-20.00000000000009,-50.00000000000022
-50.00000000000022,-70.00000000000031,-20.00000000000009,50.00000000000022,-10.000000000000044,-40.00000000000018,-40.00000000000018,-0.0,-0.0,-30.000000000000135,-20.00000000000009,-50.00000000000022
-40.00000000000018,-70.00000000000031,-20.00000000000009,50.00000000000022,-0.0,-40.00000000000018,-50.00000000000022,-0.0,-0.0,-30.000000000000135,-20.00000000000009,-50.00000000000022
-40.00000000000018,-70.00000000000031,-20.00000000000009,50.00000000000022,-0.0,-40.00000000000018,-50.00000000000022,-0.0,-0.0,-30.000000000000135,-30.000000000000135,-50.00000000000022
-40.00000000000018,-70.00000000000031,-20.00000000000009,50.00000000000022,-0.0,-40.00000000000018,-50.00000000000022,-10.000000000000044,-10.000000000000044,-30.000000000000135,-30.000000000000135,-50.00000000000022
-30.000000000000135,-60.00000000000027,-30.000000000000135,50.00000000000022,-0.0,-40.00000000000018,-50.00000000000022,-10.000000000000044,-10.000000000000044,-30.000000000000135,-30.000000000000135,-50.00000000000022
-30.000000000000135,-60.00000000000027,-30.000000000000135,50.00000000000022,-0.0,-40.00000000000018,-50.00000000000022,-10.000000000000044,-10.000000000000044,-30.000000000000135,-30.000000000000135,-50.00000000000022
-30.000000000000135,-60.00000000000027,-30.000000000000135,50.00000000000022,-0.0,-40.00000000000018,-50.00000000000022,-10.000000000000044,-10.000000000000044,-30.000000000000135,-30.000000000000135,-50.00000000000022
-30.000000000000135,-60.00000000000027,-30.000000000000135,50.00000000000022,-0.0,-50.00000000000022,-50.00000000000022,-10.000000000000044,-10.000000000000044,-30.000000000000135,-30.000000000000135,-50.00000000000022
-30.000000000000135,-70.00000000000031,-30.000000000000135,50.00000000000022,-0.0,-50.00000000000022,-50.00000000000022,-10.000000000000044,-10.000000000000044,-30.000000000000135,-30.000000000000135,-50.00000000000022
-30.000000000000135,-70.00000000000031,-30.000000000000135,50.00000000000022,-0.0,-50.00000000000022,-50.00000000000022,-10.000000000000044,-10.000000000000044,-30.000000000000135,-30.000000000000135,-50.00000000000022
-30.000000000000135,-70.00000000000031,-30.000000000000135,50.00000000000022,-0.0,-50.00000000000022,-40.00000000000018,-20.00000000000009,-10.000000000000044,-30.000000000000135,-30.000000000000135,-50.00000000000022
-30.000000000000135,-70.00000000000031,-40.00000000000018,50.00000000000022,-0.0,-50.00000000000022,-40.00000000000018,-10.000000000000044,-10.000000000000044,-30.000000000000135,-30.000000000000135,-50.00000000000022
-30.000000000000135,-70.00000000000031,-40.00000000000018,40.00000000000018,-0.0,-50.00000000000022,-40.00000000000018,-20.00000000000009,-10.000000000000044,-30.000000000000135,-30.000000000000135,-50.00000000000022
-20.00000000000009,-70.00000000000031,-30.000000000000135,40.00000000000018,-0.0,-50.00000000000022,-40.00000000000018,-20.00000000000009,-20.00000000000009,-30.000000000000135,-30.000000000000135,-50.00000000000022
-20.00000000000009,-60.00000000000027,-30.000000000000135,30.000000000000135,-0.0,-50.00000000000022,-40.00000000000018,-20.00000000000009,-20.00000000000009,-30.000000000000135,-30.000000000000135,-50.00000000000022
-10.000000000000044,-60.00000000000027,-40.00000000000018,30.000000000000135,-0.0,-40.00000000000018,-40.00000000000018,-10.000000000000044,-20.00000000000009,-30.000000000000135,-30.000000000000135,-50.00000000000022
-10.000000000000044,-50.00000000000022,-30.000000000000135,20.00000000000009,10.000000000000044,-40.00000000000018,-40.00000000000018,-10.000000000000044,-20.00000000000009,-30.000000000000135,-30.000000000000135,-50.00000000000022
-0.0,-50.00000000000022,-30.000000000000135,20.00000000000009,10.000000000000044,-40.00000000000018,-40.00000000000018,-20.00000000000009,-20.00000000000009,-30.000000000000135,-30.000000000000135,-50.00000000000022
-0.0,-40.00000000000018,-30.000000000000135,10.000000000000044,10.000000000000044,-30.000000000000135,-40.00000000000018,-20.00000000000009,-20.00000000000009,-30.000000000000135,-30.000000000000135,-50.00000000000022
-0.0,-40.00000000000018,-40.00000000000018,10.000000000000044,10.000000000000044,-30.000000000000135,-40.00000000000018,-20.00000000000009,-30.000000000000135,-30.000000000000135,-30.000000000000135,-50.00000000000022
-0.0,-30.000000000000135,-40.00000000000018,10.000000000000044,20.00000000000009,-40.00000000000018,-40.00000000000018,-20.00000000000009,-30.000000000000135,-40.00000000000018,-40.00000000000018,-50.00000000000022
-0.0,-30.000000000000135,-40.00000000000018,10.000000000000044,20.00000000000009,-40.00000000000018,-40.00000000000018,-20.00000000000009,-30.000000000000135,-40.00000000000018,-40.00000000000018,-50.00000000000022
10.000000000000044,-30.000000000000135,-50.00000000000022,-0.0,30.000000000000135,-40.00000000000018,-40.00000000000018,-20.00000000000009,-30.000000000000135,-40.00000000000018,-40.00000000000018,-60.00000000000027
20.00000000000009,-30.000000000000135,-60.00000000000027,-0.0,30.000000000000135,-40.00000000000018,-40.00000000000018,-20.00000000000009,-30.000000000000135,-40.00000000000018,-40.00000000000018,-60.00000000000027
30.000000000000135,-30.000000000000135,-60.00000000000027,-0.0,40.00000000000018,-40.00000000000018,-40.00000000000018,-20.00000000000009,-30.000000000000135,-40.00000000000018,-40.00000000000018,-60.00000000000027
40.00000000000018,-20.00000000000009,-70.00000000000031,-0.0,50.00000000000022,-40.00000000000018,-30.000000000000135,-20.00000000000009,-30.000000000000135,-40.00000000000018,-40.00000000000018,-50.00000000000022
50.00000000000022,-20.00000000000009,-70.00000000000031,-10.000000000000044,60.00000000000027,-40.00000000000018,-30.000000000000135,-20.00000000000009,-30.000000000000135,-40.00000000000018,-40.00000000000018,-50.00000000000022
50.00000000000022,-20.00000000000009,-70.00000000000031,-20.00000000000009,60.00000000000027,-40.00000000000018,-30.000000000000135,-20.00000000000009,-30.000000000000135,-30.000000000000135,-40.00000000000018,-50.00000000000022
60.00000000000027,-10.000000000000044,-80.00000000000036,-20.00000000000009,70.00000000000031,-40.00000000000018,-30.000000000000135,-20.00000000000009,-30.000000000000135,-30.000000000000135,-40.00000000000018,-50.00000000000022
60.00000000000027,-10.000000000000044,-80.00000000000036,-20.00000000000009,70.00000000000031,-40.00000000000018,-30.000000000000135,-20.00000000000009,-30.000000000000135,-40.00000000000018,-30.000000000000135,-50.00000000000022
70.00000000000031,-10.000000000000044,-80.00000000000036,-30.000000000000135,70.00000000000031,-40.00000000000018,-30.000000000000135,-20.00000000000009,-30.000000000000135,-40.00000000000018,-30.000000000000135,-50.00000000000022
70.00000000000031,-10.000000000000044,-90.0000000000004,-30.000000000000135,80.00000000000036,-40.00000000000018,-30.000000000000135,-20.00000000000009,-30.000000000000135,-40.00000000000018,-30.000000000000135,-50.00000000000022
80.00000000000036,-0.0,-90.0000000000004,-40.00000000000018,80.00000000000036,-40.00000000000018,-30.000000000000135,-20.00000000000009,-30.000000000000135,-40.00000000000018,-30.000000000000135,-50.00000000000022
90.0000000000004,-0.0,-90.0000000000004,-40.00000000000018,90.0000000000004,-40.00000000000018,-30.000000000000135,-20.00000000000009,-30.000000000000135,-40.00000000000018,-30.000000000000135,-50.00000000000022
100.00000000000044,-0.0,-100.00000000000044,-50.00000000000022,100.00000000000044,-50.00000000000022,-30.000000000000135,-20.00000000000009,-30.000000000000135,-40.00000000000018,-30.000000000000135,-50.00000000000022
110.00000000000048,-0.0,-100.00000000000044,-60.00000000000027,100.00000000000044,-50.00000000000022,-30.000000000000135,-20.00000000000009,-30.000000000000135,-40.00000000000018,-30.000000000000135,-50.00000000000022
110.00000000000048,-0.0,-110.00000000000048,-60.00000000000027,110.00000000000048,-40.00000000000018,-30.000000000000135,-20.00000000000009,-30.000000000000135,-40.00000000000018,-30.000000000000135,-50.00000000000022
120.00000000000054,-0.0,-100.00000000000044,-70.00000000000031,110.00000000000048,-40.00000000000018,-30.000000000000135,-20.00000000000009,-30.000000000000135,-40.00000000000018,-30.000000000000135,-50.00000000000022
130.00000000000057,10.000000000000044,-110.00000000000048,-70.00000000000031,120.00000000000054,-40.00000000000018,-30.000000000000135,-20.00000000000009,-30.000000000000135,-40.00000000000018,-30.000000000000135,-50.00000000000022
130.00000000000057,10.000000000000044,-100.00000000000044,-80.00000000000036,110.00000000000048,-40.00000000000018,-30.000000000000135,-20.00000000000009,-30.000000000000135,-40.00000000000018,-30.000000000000135,-50.00000000000022
130.00000000000057,20.00000000000009,-100.00000000000044,-80.00000000000036,110.00000000000048,-30.000000000000135,-30.000000000000135,-20.00000000000009,-30.000000000000135,-40.00000000000018,-30.000000000000135,-50.00000000000022
130.00000000000057,20.00000000000009,-100.00000000000044,-80.00000000000036,110.00000000000048,-30.000000000000135,-20.00000000000009,-20.00000000000009,-20.00000000000009,-40.00000000000018,-30.000000000000135,-40.00000000000018
130.00000000000057,30.000000000000135,-90.0000000000004,-80.00000000000036,110.00000000000048,-20.00000000000009,-20.00000000000009,-20.00000000000009,-20.00000000000009,-40.00000000000018,-30.000000000000135,-40.00000000000018
130.00000000000057,30.000000000000135,-90.0000000000004,-90.0000000000004,110.00000000000048,-20.00000000000009,-20.00000000000009,-20.00000000000009,-20.00000000000009,-30.000000000000135,-30.000000000000135,-40.00000000000018
130.00000000000057,40.00000000000018,-80.00000000000036,-90.0000000000004,110.00000000000048,-10.000000000000044,-20.00000000000009,-20.00000000000009,-20.00000000000009,-30.000000000000135,-30.000000000000135,-40.00000000000018
140.00000000000063,50.00000000000022,-80.00000000000036,-90.0000000000004,110.00000000000048,-10.000000000000044,-10.000000000000044,-10.000000000000044,-10.000000000000044,-30.000000000000135,-30.000000000000135,-40.00000000000018
140.00000000000063,50.00000000000022,-80.00000000000036,-90.0000000000004,110.00000000000048,-10.000000000000044,-10.000000000000044,-10.000000000000044,-10.000000000000044,-30.000000000000135,-30.000000000000135,-30.000000000000135
130.00000000000057,50.00000000000022,-80.00000000000036,-90.0000000000004,100.00000000000044,-10.000000000000044,-10.000000000000044,-10.000000000000044,-10.000000000000044,-30.000000000000135,-20.00000000000009,-30.000000000000135
120.00000000000054,50.00000000000022,-80.00000000000036,-90.0000000000004,100.00000000000044,-10.000000000000044,-10.000000000000044,-10.000000000000044,-10.000000000000044,-30.000000000000135,-20.00000000000009,-30.000000000000135
120.00000000000054,50.00000000000022,-70.00000000000031,-80.00000000000036,90.0000000000004,-10.000000000000044,-10.000000000000044,-10.000000000000044,-0.0,-20.00000000000009,-20.00000000000009,-30.000000000000135
110.00000000000048,40.00000000000018,-70.00000000000031,-80.00000000000036,90.0000000000004,-10.000000000000044,-10.000000000000044,-0.0,-0.0,-20.00000000000009,-20.00000000000009,-30.000000000000135
100.00000000000044,40.00000000000018,-60.00000000000027,-70.00000000000031,80.00000000000036,-10.000000000000044,-0.0,-0.0,-0.0,-20.00000000000009,-20.00000000000009,-20.00000000000009
80.00000000000036,30.000000000000135,-60.00000000000027,-60.00000000000027,70.00000000000031,-10.000000000000044,-0.0,-0.0,-0.0,-20.00000000000009,-20.00000000000009,-20.00000000000009
70.00000000000031,30.000000000000135,-50.00000000000022,-50.00000000000022,60.00000000000027,-10.000000000000044,-0.0,-0.0,-0.0,-30.000000000000135,-20.00000000000009,-20.00000000000009
60.00000000000027,20.00000000000009,-50.00000000000022,-40.00000000000018,50.00000000000022,-10.000000000000044,-0.0,-0.0,-10.000000000000044,-30.000000000000135,-20.00000000000009,-20.00000000000009
60.00000000000027,10.000000000000044,-40.00000000000018,-30.000000000000135,50.00000000000022,-10.000000000000044,-0.0,-0.0,-10.000000000000044,-30.000000000000135,-20.00000000000009,-20.00000000000009
50.00000000000022,10.000000000000044,-40.00000000000018,-30.000000000000135,40.00000000000018,-10.000000000000044,-0.0,-0.0,-10.000000000000044,-30.000000000000135,-10.000000000000044,-20.00000000000009
40.00000000000018,10.000000000000044,-30.000000000000135,-20.00000000000009,40.00000000000018,-10.000000000000044,-0.0,-0.0,-10.000000000000044,-40.00000000000018,-20.00000000000009,-20.00000000000009
30.000000000000135,-0.0,-30.000000000000135,-20.00000000000009,30.000000000000135,-10.000000000000044,-0.0,-0.0,-20.00000000000009,-40.00000000000018,-20.00000000000009,-30.000000000000135
30.000000000000135,-0.0,-30.000000000000135,-10.000000000000044,30.000000000000135,-10.000000000000044,-0.0,-0.0,-20.00000000000009,-40.00000000000018,-20.00000000000009,-30.000000000000135
20.00000000000009,-0.0,-20.00000000000009,-10.000000000000044,20.00000000000009,-10.000000000000044,-0.0,-10.000000000000044,-20.00000000000009,-40.00000000000018,-20.00000000000009,-30.000000000000135
10.000000000000044,-0.0,-10.000000000000044,-0.0,10.000000000000044,-0.0,-0.0,-10.000000000000044,-20.00000000000009,-40.00000000000018,-20.00000000000009,-30.000000000000135
-0.0,-0.0,-0.0,-0.0,-0.0,-0.0,-0.0,-10.000000000000044,-20.00000000000009,-40.00000000000018,-10.000000000000044,-30.000000000000135
-0.0,-0.0,-0.0,-0.0,-0.0,-0.0,-0.0,-10.000000000000044,-30.000000000000135,-40.00000000000018,-10.000000000000044,-30.000000000000135
-0.0,-0.0,-0.0,-0.0,-0.0,-0.0,-0.0,-10.000000000000044,-30.000000000000135,-40.00000000000018,-10.000000000000044,-30.000000000000135
-10.000000000000044,-0.0,10.000000000000044,-0.0,-10.000000000000044,-0.0,-0.0,-10.000000000000044,-30.000000000000135,-40.00000000000018,-10.000000000000044,-30.000000000000135
-10.000000000000044,-0.0,20.00000000000009,-0.0,-20.00000000000009,10.000000000000044,-0.0,-10.000000000000044,-30.000000000000135,-40.00000000000018,-10.000000000000044,-30.000000000000135
-10.000000000000044,-0.0,30.000000000000135,-0.0,-20.00000000000009,20.00000000000009,-0.0,-10.000000000000044,-30.000000000000135,-40.00000000000018,-10.000000000000044,-30.000000000000135
-10.000000000000044,10.000000000000044,30.000000000000135,-0.0,-20.00000000000009,20.00000000000009,-0.0,-10.000000000000044,-20.00000000000009,-40.00000000000018,-10.000000000000044,-30.000000000000135
-10.000000000000044,10.000000000000044,30.000000000000135,-0.0,-20.00000000000009,20.00000000000009,-0.0,-10.000000000000044,-20.00000000000009,-30.000000000000135,-0.0,-30.000000000000135
-10.000000000000044,10.000000000000044,30.000000000000135,-0.0,-20.00000000000009,20.00000000000009,-0.0,-10.000000000000044,-20.00000000000009,-30.000000000000135,-0.0,-30.000000000000135
-10.000000000000044,20.00000000000009,30.000000000000135,-0.0,-20.00000000000009,30.000000000000135,-0.0,-0.0,-10.000000000000044,-20.00000000000009,-0.0,-20.00000000000009
-0.0,20.00000000000009,30.000000000000135,-10.000000000000044,-20.00000000000009,30.000000000000135,-0.0,-0.0,-0.0,-20.00000000000009,-0.0,-20.00000000000009
-0.0,20.00000000000009,30.000000000000135,-10.000000000000044,-20.00000000000009,30.000000000000135,10.000000000000044,-0.0,-0.0,-10.000000000000044,10.000000000000044,-10.000000000000044
-0.0,30.000000000000135,40.00000000000018,-10.000000000000044,-20.00000000000009,30.000000000000135,10.000000000000044,-0.0,-0.0,-10.000000000000044,10.000000000000044,-10.000000000000044
-0.0,30.000000000000135,40.00000000000018,-20.00000000000009,-20.00000000000009,40.00000000000018,20.00000000000009,-0.0,-0.0,-0.0,20.00000000000009,-0.0
-0.0,40.00000000000018,40.00000000000018,-20.00000000000009,-20.00000000000009,40.00000000000018,10.000000000000044,-0.0,-0.0,-0.0,30.000000000000135,-0.0
-0.0,40.00000000000018,50.00000000000022,-20.00000000000009,-20.00000000000009,50.00000000000022,-0.0,-0.0,-0.0,-0.0,30.000000000000135,-0.0
-0.0,50.00000000000022,50.00000000000022,-30.000000000000135,-20.00000000000009,50.00000000000022,-0.0,-0.0,-0.0,-0.0,40.00000000000018,-0.0
-0.0,50.00000000000022,50.00000000000022,-30.000000000000135,-20.00000000000009,50.00000000000022,-0.0,-10.000000000000044,-0.0,-0.0,40.00000000000018,10.000000000000044
-0.0,50.00000000000022,40.00000000000018,-30.000000000000135,-20.00000000000009,50.00000000000022,-10.000000000000044,-20.00000000000009,-0.0,-0.0,50.00000000000022,10.000000000000044
-0.0,50.00000000000022,40.00000000000018,-30.000000000000135,-10.000000000000044,40.00000000000018,-20.00000000000009,-20.00000000000009,-0.0,-0.0,50.00000000000022,20.00000000000009
-0.0,50.00000000000022,30.000000000000135,-30.000000000000135,-10.000000000000044,40.00000000000018,-20.00000000000009,-20.00000000000009,-0.0,10.000000000000044,60.00000000000027,20.00000000000009
10.000000000000044,50.00000000000022,30.000000000000135,-30.000000000000135,-0.0,40.00000000000018,-20.00000000000009,-20.00000000000009,10.000000000000044,10.000000000000044,60.00000000000027,30.000000000000135
10.000000000000044,40.00000000000018,20.00000000000009,-30.000000000000135,-0.0,30.000000000000135,-30.000000000000135,-20.00000000000009,10.000000000000044,20.00000000000009,60.00000000000027,30.000000000000135
20.00000000000009,40.00000000000018,20.00000000000009,-30.000000000000135,-0.0,30.000000000000135,-30.000000000000135,-10.000000000000044,20.00000000000009,20.00000000000009,70.00000000000031,30.000000000000135
20.00000000000009,40.00000000000018,10.000000000000044,-30.000000000000135,-0.0,20.00000000000009,-20.00000000000009,-10.000000000000044,20.00000000000009,20.00000000000009,70.00000000000031,30.000000000000135
20.00000000000009,30.000000000000135,10.000000000000044,-20.00000000000009,-0.0,20.00000000000009,-20.00000000000009,-0.0,20.00000000000009,10.000000000000044,60.00000000000027,30.000000000000135
10.000000000000044,30.000000000000135,10.000000000000044,-20.00000000000009,-0.0,10.000000000000044,-20.00000000000009,-0.0,10.000000000000044,-0.0,60.00000000000027,30.000000000000135
10.000000000000044,20.00000000000009,-0.0,-20.00000000000009,-0.0,10.000000000000044,-10.000000000000044,-0.0,10.000000000000044,-0.0,50.00000000000022,20.00000000000009
10.000000000000044,20.00000000000009,-0.0,-10.000000000000044,-0.0,10.000000000000044,-0.0,-0.0,-0.0,-10.000000000000044,40.00000000000018,10.000000000000044
10.000000000000044,20.00000000000009,10.000000000000044,-10.000000000000044,-0.0,10.000000000000044,-0.0,-10.000000000000044,-10.000000000000044,-20.00000000000009,20.00000000000009,-0.0
10.000000000000044,20.00000000000009,10.000000000000044,-10.000000000000044,-0.0,10.000000000000044,-0.0,-20.00000000000009,-20.00000000000009,-40.00000000000018,10.000000000000044,-0.0
10.000000000000044,20.00000000000009,-0.0,-10.000000000000044,-0.0,10.000000000000044,-0.0,-30.000000000000135,-30.000000000000135,-50.00000000000022,-0.0,-10.000000000000044
10.000000000000044,20.00000000000009,-0.0,-10.000000000000044,-0.0,10.000000000000044,-0.0,-40.00000000000018,-40.00000000000018,-60.00000000000027,-0.0,-20.00000000000009
10.000000000000044,20.00000000000009,-0.0,-10.000000000000044,-0.0,10.000000000000044,-0.0,-40.00000000000018,-50.00000000000022,-70.00000000000031,-10.000000000000044,-20.00000000000009
10.000000000000044,20.00000000000009,-0.0,-10.000000000000044,-0.0,10.000000000000044,-0.0,-50.00000000000022,-50.00000000000022,-70.00000000000031,-10.000000000000044,-30.000000000000135
20.00000000000009,20.00000000000009,-0.0,-20.00000000000009,-0.0,-0.0,-0.0,-60.00000000000027,-60.00000000000027,-70.00000000000031,-20.00000000000009,-30.000000000000135
20.00000000000009,20.00000000000009,-0.0,-20.00000000000009,10.000000000000044,-0.0,-0.0,-70.00000000000031,-80.00000000000036,-70.00000000000031,-20.00000000000009,-30.000000000000135
20.00000000000009,20.00000000000009,-0.0,-20.00000000000009,10.000000000000044,-0.0,-0.0,-70.00000000000031,-100.00000000000044,-60.00000000000027,-10.000000000000044,-30.000000000000135
20.00000000000009,10.000000000000044,-0.0,-10.000000000000044,10.000000000000044,-0.0,-0.0,-80.00000000000036,-100.00000000000044,-60.00000000000027,-10.000000000000044,-30.000000000000135
10.000000000000044,10.000000000000044,-10.000000000000044,-10.000000000000044,10.000000000000044,-0.0,-0.0,-80.00000000000036,-100.00000000000044,-70.00000000000031,-10.000000000000044,-30.000000000000135
10.000000000000044,-0.0,-10.000000000000044,-0.0,10.000000000000044,-0.0,-0.0,-50.00000000000022,-80.00000000000036,-70.00000000000031,-20.00000000000009,-30.000000000000135
10.000000000000044,-0.0,-10.000000000000044,-0.0,10.000000000000044,-0.0,-0.0,-20.00000000000009,-40.00000000000018,-70.00000000000031,-40.00000000000018,-50.00000000000022
-0.0,-0.0,-10.000000000000044,-0.0,-0.0,-0.0,30.000000000000135,30.000000000000135,50.00000000000022,-40.00000000000018,-50.00000000000022,-60.00000000000027
-0.0,-0.0,-10.000000000000044,-0.0,-0.0,-0.0,60.00000000000027,110.00000000000048,160.0000000000007,20.00000000000009,-50.00000000000022,-60.00000000000027
-0.0,-0.0,-0.0,-0.0,-0.0,-0.0,90.0000000000004,220.00000000000097,290.0000000000013,130.00000000000057,-30.000000000000135,-40.00000000000018
-0.0,-0.0,-0.0,-0.0,-0.0,-0.0,100.00000000000044,310.00000000000136,420.0000000000019,290.0000000000013,40.00000000000018,30.000000000000135
-0.0,-0.0,-0.0,-0.0,-0.0,-0.0,80.00000000000036,350.00000000000153,500.0000000000022,500.0000000000022,180.0000000000008,140.00000000000063
-0.0,-0.0,-0.0,-0.0,-0.0,-0.0,10.000000000000044,300.0000000000013,530.0000000000024,760.0000000000034,390.0000000000017,320.0000000000014
-0.0,-0.0,-0.0,-0.0,-0.0,-0.0,-100.00000000000044,160.0000000000007,470.0000000000021,1040.0000000000045,660.000000000003,550.0000000000024
-0.0,-0.0,-0.0,-0.0,-0.0,-0.0,-250.0000000000011,-50.00000000000022,350.00000000000153,1290.0000000000057,960.0000000000043,800.0000000000035
-0.0,-0.0,-0.0,-0.0,-0.0,-0.0,-410.0000000000018,-320.0000000000014,200.00000000000088,1470.0000000000066,1250.0000000000055,1030.0000000000045
-0.0,-0.0,-0.0,-0.0,-0.0,-0.0,-560.0000000000025,-600.0000000000026,30.000000000000135,1560.0000000000068,1490.0000000000066,1220.0000000000055
-0.0,-0.0,-0.0,-0.0,-0.0,-0.0,-670.000000000003,-850.0000000000038,-130.00000000000057,1530.0000000000068,1620.0000000000073,1330.000000000006
-0.0,-0.0,-0.0,-0.0,-0.0,-0.0,-740.0000000000033,-1030.0000000000045,-290.0000000000013,1390.0000000000061,1640.0000000000073,1340.000000000006
-0.0,-0.0,-0.0,-0.0,-0.0,-0.0,-750.0000000000033,-1130.000000000005,-400.00000000000176,1160.0000000000052,1540.0000000000068,1250.0000000000055
-0.0,-0.0,-10.000000000000044,-0.0,-0.0,-10.000000000000044,-700.0000000000031,-1150.000000000005,-470.0000000000021,890.000000000004,1350.000000000006,1090.0000000000048
-0.0,-10.000000000000044,-10.000000000000044,-0.0,-0.0,-10.000000000000044,-620.0000000000027,-1090.0000000000048,-490.00000000000216,620.0000000000027,1100.0000000000048,890.000000000004
-0.0,-10.000000000000044,-10.000000000000044,10.000000000000044,-0.0,-10.000000000000044,-520.0000000000023,-970.0000000000043,-460.00000000000205,370.00000000000165,830.0000000000036,670.000000000003
-10.000000000000044,-20.00000000000009,-10.000000000000044,10.000000000000044,-0.0,-20.00000000000009,-410.0000000000018,-810.0000000000036,-400.00000000000176,170.00000000000077,570.0000000000025,470.0000000000021
-10.000000000000044,-20.00000000000009,-10.000000000000044,10.000000000000044,-0.0,-20.00000000000009,-310.00000000000136,-630.0000000000028,-330.0000000000015,30.000000000000135,350.00000000000153,290.0000000000013
-10.000000000000044,-30.000000000000135,-10.000000000000044,20.00000000000009,-0.0,-20.00000000000009,-210.00000000000094,-470.0000000000021,-260.00000000000114,-70.00000000000031,180.0000000000008,150.00000000000065
-10.000000000000044,-30.000000000000135,-20.00000000000009,20.00000000000009,-0.0,-20.00000000000009,-140.00000000000063,-330.0000000000015,-200.00000000000088,-120.00000000000054,50.00000000000022,50.00000000000022
-10.000000000000044,-30.000000000000135,-20.00000000000009,20.00000000000009,-0.0,-30.000000000000135,-80.00000000000036,-220.00000000000097,-140.00000000000063,-140.00000000000063,-20.00000000000009,-0.0
-10.000000000000044,-40.00000000000018,-20.00000000000009,20.00000000000009,-0.0,-30.000000000000135,-50.00000000000022,-150.00000000000065,-110.00000000000048,-140.00000000000063,-60.00000000000027,-30.000000000000135
-10.000000000000044,-40.00000000000018,-30.000000000000135,20.00000000000009,-0.0,-30.000000000000135,-30.000000000000135,-100.00000000000044,-90.0000000000004,-120.00000000000054,-70.00000000000031,-50.00000000000022
-10.000000000000044,-40.00000000000018,-30.000000000000135,20.00000000000009,-0.0,-30.000000000000135,-20.00000000000009,-70.00000000000031,-70.00000000000031,-100.00000000000044,-60.00000000000027,-50.00000000000022
-10.000000000000044,-40.00000000000018,-30.000000000000135,20.00000000000009,-0.0,-30.000000000000135,-10.000000000000044,-50.00000000000022,-50.00000000000022,-90.0000000000004,-60.00000000000027,-40.00000000000018
-10.000000000000044,-40.00000000000018,-30.000000000000135,20.00000000000009,-0.0,-30.000000000000135,-0.0,-30.000000000000135,-30.000000000000135,-80.00000000000036,-60.00000000000027,-50.00000000000022
-10.000000000000044,-40.00000000000018,-30.000000000000135,20.00000000000009,-0.0,-30.000000000000135,-0.0,-10.000000000000044,-20.00000000000009,-80.00000000000036,-60.00000000000027,-50.00000000000022
-10.000000000000044,-40.00000000000018,-20.00000000000009,30.000000000000135,-0.0,-30.000000000000135,-0.0,-0.0,-10.000000000000044,-80.00000000000036,-70.00000000000031,-50.00000000000022
-10.000000000000044,-40.00000000000018,-20.00000000000009,30.000000000000135,-0.0,-30.000000000000135,10.000000000000044,-0.0,-0.0,-80.00000000000036,-70.00000000000031,-50.00000000000022
-20.00000000000009,-40.00000000000018,-20.00000000000009,30.000000000000135,-0.0,-30.000000000000135,10.000000000000044,20.00000000000009,-0.0,-70.00000000000031,-70.00000000000031,-50.00000000000022
-20.00000000000009,-40.00000000000018,-10.000000000000044,30.000000000000135,-0.0,-20.00000000000009,20.00000000000009,30.000000000000135,20.00000000000009,-50.00000000000022,-60.00000000000027,-50.00000000000022
-20.00000000000009,-40.00000000000018,-10.000000000000044,30.000000000000135,-0.0,-20.00000000000009,20.00000000000009,40.00000000000018,30.000000000000135,-40.00000000000018,-60.00000000000027,-40.00000000000018
-20.00000000000009,-40.00000000000018,-0.0,30.000000000000135,-0.0,-20.00000000000009,30.000000000000135,60.00000000000027,40.00000000000018,-30.000000000000135,-50.00000000000022,-40.00000000000018
-20.00000000000009,-30.000000000000135,-0.0,30.000000000000135,-0.0,-20.00000000000009,30.000000000000135,80.00000000000036,60.00000000000027,-20.00000000000009,-40.00000000000018,-30.000000000000135
-20.00000000000009,-30.000000000000135,-0.0,30.000000000000135,-0.0,-20.00000000000009,40.00000000000018,90.0000000000004,70.00000000000031,-10.000000000000044,-40.00000000000018,-30.000000000000135
-20.00000000000009,-30.000000000000135,-0.0,30.000000000000135,-10.000000000000044,-10.000000000000044,50.00000000000022,110.00000000000048,80.00000000000036,-0.0,-40.00000000000018,-30.000000000000135
-20.00000000000009,-30.000000000000135,-0.0,20.00000000000009,-0.0,-10.000000000000044,50.00000000000022,120.00000000000054,90.0000000000004,-0.0,-30.000000000000135,-20.00000000000009
-20.00000000000009,-30.000000000000135,-0.0,20.00000000000009,-0.0,-10.000000000000044,60.00000000000027,140.00000000000063,110.00000000000048,10.000000000000044,-30.000000000000135,-20.00000000000009
-20.00000000000009,-30.000000000000135,-0.0,20.00000000000009,-0.0,-10.000000000000044,60.00000000000027,150.00000000000065,120.00000000000054,20.00000000000009,-20.00000000000009,-20.00000000000009
-20.00000000000009,-20.00000000000009,-0.0,20.00000000000009,-10.000000000000044,-10.000000000000044,60.00000000000027,170.00000000000077,140.00000000000063,30.000000000000135,-20.00000000000009,-10.000000000000044
-20.00000000000009,-20.00000000000009,-0.0,10.000000000000044,-10.000000000000044,-0.0,60.00000000000027,180.0000000000008,150.00000000000065,40.00000000000018,-10.000000000000044,-10.000000000000044
-20.00000000000009,-20.00000000000009,-0.0,10.000000000000044,-10.000000000000044,-0.0,70.00000000000031,190.00000000000085,170.00000000000077,50.00000000000022,-10.000000000000044,-10.000000000000044
-20.00000000000009,-10.000000000000044,-0.0,10.000000000000044,-10.000000000000044,-0.0,70.00000000000031,210.00000000000094,190.00000000000085,60.00000000000027,-10.000000000000044,-10.000000000000044
-20.00000000000009,-10.000000000000044,10.000000000000044,10.000000000000044,-10.000000000000044,-0.0,70.00000000000031,210.00000000000094,210.00000000000094,70.00000000000031,-0.0,-0.0
-20.00000000000009,-0.0,10.000000000000044,10.000000000000044,-20.00000000000009,-0.0,70.00000000000031,220.00000000000097,220.00000000000097,70.00000000000031,-0.0,-0.0
-20.00000000000009,-0.0,20.00000000000009,10.000000000000044,-20.00000000000009,-0.0,60.00000000000027,240.00000000000108,230.00000000000102,80.00000000000036,-0.0,-0.0
-20.00000000000009,-0.0,20.00000000000009,10.000000000000044,-20.00000000000009,10.000000000000044,60.00000000000027,250.0000000000011,250.0000000000011,90.0000000000004,-0.0,-0.0
-20.00000000000009,-0.0,30.000000000000135,-0.0,-30.000000000000135,10.000000000000044,60.00000000000027,260.00000000000114,260.00000000000114,100.00000000000044,-0.0,-0.0
-20.00000000000009,-0.0,40.00000000000018,-0.0,-30.000000000000135,20.00000000000009,60.00000000000027,270.0000000000012,280.00000000000125,100.00000000000044,-0.0,-0.0
-20.00000000000009,10.000000000000044,50.00000000000022,-0.0,-40.00000000000018,30.000000000000135,60.00000000000027,280.00000000000125,290.0000000000013,110.00000000000048,-0.0,-0.0
-20.00000000000009,20.00000000000009,60.00000000000027,-0.0,-50.00000000000022,50.00000000000022,60.00000000000027,290.0000000000013,310.00000000000136,120.00000000000054,-0.0,-0.0
-20.00000000000009,30.000000000000135,70.00000000000031,-10.000000000000044,-50.00000000000022,60.00000000000027,60.00000000000027,310.00000000000136,320.0000000000014,130.00000000000057,-0.0,-0.0
-20.00000000000009,40.00000000000018,90.0000000000004,-10.000000000000044,-60.00000000000027,70.00000000000031,60.00000000000027,320.0000000000014,340.00000000000153,150.00000000000065,-0.0,-0.0
-20.00000000000009,60.00000000000027,100.00000000000044,-20.00000000000009,-60.00000000000027,80.00000000000036,60.00000000000027,340.00000000000153,360.0000000000016,160.0000000000007,-0.0,-0.0
-20.00000000000009,70.00000000000031,110.00000000000048,-30.000000000000135,-70.00000000000031,100.00000000000044,70.00000000000031,350.00000000000153,380.0000000000017,180.0000000000008,10.000000000000044,-0.0
-10.000000000000044,90.0000000000004,120.00000000000054,-40.00000000000018,-70.00000000000031,110.00000000000048,70.00000000000031,380.0000000000017,410.0000000000018,190.00000000000085,10.000000000000044,10.000000000000044
-10.000000000000044,100.00000000000044,120.00000000000054,-50.00000000000022,-70.00000000000031,110.00000000000048,70.00000000000031,400.00000000000176,430.00000000000193,210.00000000000094,20.00000000000009,10.000000000000044
-0.0,110.00000000000048,130.00000000000057,-60.00000000000027,-70.00000000000031,120.00000000000054,80.00000000000036,420.0000000000019,460.00000000000205,230.00000000000102,30.000000000000135,20.00000000000009
-0.0,120.00000000000054,130.00000000000057,-70.00000000000031,-70.00000000000031,130.00000000000057,80.00000000000036,450.000000000002,490.00000000000216,240.00000000000108,40.00000000000018,30.000000000000135
-0.0,130.00000000000057,140.00000000000063,-80.00000000000036,-60.00000000000027,140.00000000000063,80.00000000000036,470.0000000000021,510.0000000000023,260.00000000000114,40.00000000000018,30.000000000000135
10.000000000000044,150.00000000000065,140.00000000000063,-90.0000000000004,-60.00000000000027,150.00000000000065,90.0000000000004,500.0000000000022,540.0000000000024,280.00000000000125,50.00000000000022,40.00000000000018
10.000000000000044,160.0000000000007,150.00000000000065,-90.0000000000004,-60.00000000000027,160.0000000000007,90.0000000000004,520.0000000000023,570.0000000000025,300.0000000000013,60.00000000000027,50.00000000000022
20.00000000000009,170.00000000000077,150.00000000000065,-100.00000000000044,-60.00000000000027,160.0000000000007,90.0000000000004,550.0000000000024,600.0000000000026,330.0000000000015,70.00000000000031,60.00000000000027
20.00000000000009,170.00000000000077,140.00000000000063,-100.00000000000044,-50.00000000000022,160.0000000000007,100.00000000000044,580.0000000000026,620.0000000000027,350.00000000000153,80.00000000000036,60.00000000000027
30.000000000000135,170.00000000000077,130.00000000000057,-100.00000000000044,-50.00000000000022,150.00000000000065,100.00000000000044,600.0000000000026,650.0000000000028,370.00000000000165,90.0000000000004,70.00000000000031
30.000000000000135,160.0000000000007,120.00000000000054,-90.0000000000004,-40.00000000000018,130.00000000000057,100.00000000000044,630.0000000000028,680.0000000000031,390.0000000000017,100.00000000000044,80.00000000000036
20.00000000000009,150.00000000000065,100.00000000000044,-90.0000000000004,-40.00000000000018,120.00000000000054,100.00000000000044,650.0000000000028,700.0000000000031,410.0000000000018,120.00000000000054,90.0000000000004
20.00000000000009,130.00000000000057,80.00000000000036,-70.00000000000031,-30.000000000000135,100.00000000000044,100.00000000000044,670.000000000003,720.0000000000032,430.00000000000193,130.00000000000057,100.00000000000044
20.00000000000009,110.00000000000048,60.00000000000027,-60.00000000000027,-20.00000000000009,70.00000000000031,100.00000000000044,690.0000000000031,740.0000000000033,450.000000000002,140.00000000000063,110.00000000000048
10.000000000000044,90.0000000000004,40.00000000000018,-40.00000000000018,-10.000000000000044,50.00000000000022,100.00000000000044,710.0000000000032,760.0000000000034,470.0000000000021,150.00000000000065,120.00000000000054
-0.0,60.00000000000027,20.00000000000009,-20.00000000000009,-10.000000000000044,30.000000000000135,100.00000000000044,730.0000000000033,780.0000000000034,490.00000000000216,170.00000000000077,130.00000000000057
-0.0,30.000000000000135,-0.0,-10.000000000000044,-0.0,10.000000000000044,100.00000000000044,740.0000000000033,800.0000000000035,500.0000000000022,180.0000000000008,150.00000000000065
-0.0,10.000000000000044,-0.0,-0.0,-0.0,-0.0,100.00000000000044,750.0000000000033,810.0000000000036,510.0000000000023,190.00000000000085,160.0000000000007
-10.000000000000044,-0.0,-0.0,-0.0,-0.0,-10.000000000000044,100.00000000000044,760.0000000000034,810.0000000000036,520.0000000000023,200.00000000000088,170.00000000000077
-10.000000000000044,-20.00000000000009,-10.000000000000044,20.00000000000009,-0.0,-20.00000000000009,100.00000000000044,760.0000000000034,810.0000000000036,530.0000000000024,210.00000000000094,180.0000000000008
-20.00000000000009,-30.000000000000135,-20.00000000000009,30.000000000000135,-0.0,-30.000000000000135,100.00000000000044,750.0000000000033,810.0000000000036,530.0000000000024,220.00000000000097,180.0000000000008
-20.00000000000009,-40.00000000000018,-20.00000000000009,30.000000000000135,-0.0,-30.000000000000135,100.00000000000044,740.0000000000033,790.0000000000035,530.0000000000024,230.00000000000102,190.00000000000085
-30.000000000000135,-50.00000000000022,-20.00000000000009,40.00000000000018,-0.0,-30.000000000000135,90.0000000000004,730.0000000000033,780.0000000000034,530.0000000000024,230.00000000000102,190.00000000000085
-30.000000000000135,-50.00000000000022,-20.00000000000009,40.00000000000018,-0.0,-30.000000000000135,90.0000000000004,710.0000000000032,750.0000000000033,520.0000000000023,240.00000000000108,200.00000000000088
-40.00000000000018,-50.00000000000022,-10.000000000000044,40.00000000000018,-10.000000000000044,-30.000000000000135,90.0000000000004,690.0000000000031,730.0000000000033,510.0000000000023,230.00000000000102,200.00000000000088
-40.00000000000018,-50.00000000000022,-10.000000000000044,50.00000000000022,-10.000000000000044,-40.00000000000018,80.00000000000036,650.0000000000028,690.0000000000031,490.00000000000216,230.00000000000102,200.00000000000088
-50.00000000000022,-60.00000000000027,-20.00000000000009,50.00000000000022,-10.000000000000044,-40.00000000000018,70.00000000000031,610.0000000000027,650.0000000000028,470.0000000000021,230.00000000000102,200.00000000000088
-50.00000000000022,-70.00000000000031,-20.00000000000009,60.00000000000027,-10.000000000000044,-40.00000000000018,70.00000000000031,570.0000000000025,610.0000000000027,440.00000000000193,220.00000000000097,190.00000000000085
-50.00000000000022,-70.00000000000031,-10.000000000000044,60.00000000000027,-20.00000000000009,-40.00000000000018,60.00000000000027,530.0000000000024,560.0000000000025,410.0000000000018,210.00000000000094,180.0000000000008
-50.00000000000022,-70.00000000000031,-10.000000000000044,50.00000000000022,-20.00000000000009,-30.000000000000135,60.00000000000027,490.00000000000216,510.0000000000023,380.0000000000017,200.00000000000088,170.00000000000077
-30.000000000000135,-50.00000000000022,10.000000000000044,20.00000000000009,-20.00000000000009,-0.0,50.00000000000022,440.00000000000193,470.0000000000021,340.00000000000153,190.00000000000085,160.0000000000007
-0.0,-10.000000000000044,50.00000000000022,-30.000000000000135,-20.00000000000009,50.00000000000022,50.00000000000022,390.0000000000017,420.0000000000019,310.00000000000136,170.00000000000077,150.00000000000065
50.00000000000022,60.00000000000027,120.00000000000054,-110.00000000000048,-30.000000000000135,140.00000000000063,50.00000000000022,340.00000000000153,370.00000000000165,280.00000000000125,160.0000000000007,140.00000000000063
120.00000000000054,170.00000000000077,210.00000000000094,-230.00000000000102,-40.00000000000018,270.0000000000012,50.00000000000022,300.0000000000013,320.0000000000014,250.0000000000011,140.00000000000063,120.00000000000054
210.00000000000094,340.00000000000153,320.0000000000014,-380.0000000000017,-50.00000000000022,430.00000000000193,50.00000000000022,250.0000000000011,270.0000000000012,220.00000000000097,120.00000000000054,110.00000000000048
310.00000000000136,540.0000000000024,450.000000000002,-540.0000000000024,-70.00000000000031,600.0000000000026,40.00000000000018,220.00000000000097,230.00000000000102,190.00000000000085,110.00000000000048,100.00000000000044
390.0000000000017,760.0000000000034,580.0000000000026,-690.0000000000031,-90.0000000000004,780.0000000000034,40.00000000000018,190.00000000000085,200.00000000000088,160.0000000000007,90.0000000000004,80.00000000000036
460.00000000000205,970.0000000000043,690.0000000000031,-810.0000000000036,-110.00000000000048,920.0000000000041,40.00000000000018,160.0000000000007,170.00000000000077,140.00000000000063,80.00000000000036,70.00000000000031
490.00000000000216,1150.000000000005,760.0000000000034,-880.0000000000039,-130.00000000000057,1010.0000000000044,40.00000000000018,130.00000000000057,140.00000000000063,110.00000000000048,70.00000000000031,60.00000000000027
480.00000000000216,1250.0000000000055,790.0000000000035,-880.0000000000039,-150.00000000000065,1030.0000000000045,40.00000000000018,100.00000000000044,120.00000000000054,90.0000000000004,50.00000000000022,50.00000000000022
440.00000000000193,1280.0000000000057,760.0000000000034,-830.0000000000036,-160.0000000000007,980.0000000000043,40.00000000000018,90.0000000000004,100.00000000000044,80.00000000000036,40.00000000000018,40.00000000000018
370.00000000000165,1210.0000000000055,700.0000000000031,-730.0000000000033,-160.0000000000007,890.000000000004,40.00000000000018,70.00000000000031,80.00000000000036,60.00000000000027,30.000000000000135,30.000000000000135
290.0000000000013,1080.0000000000048,610.0000000000027,-610.0000000000027,-160.0000000000007,760.0000000000034,40.00000000000018,60.00000000000027,70.00000000000031,50.00000000000022,20.00000000000009,20.00000000000009
200.00000000000088,910.0000000000041,510.0000000000023,-470.0000000000021,-150.00000000000065,620.0000000000027,30.000000000000135,40.00000000000018,60.00000000000027,40.00000000000018,10.000000000000044,10.000000000000044
130.00000000000057,730.0000000000033,410.0000000000018,-340.00000000000153,-140.00000000000063,470.0000000000021,30.000000000000135,30.000000000000135,50.00000000000022,30.000000000000135,-0.0,10.000000000000044
60.00000000000027,540.0000000000024,300.0000000000013,-220.00000000000097,-120.00000000000054,340.00000000000153,30.000000000000135,30.000000000000135,40.00000000000018,30.000000000000135,-0.0,-0.0
10.000000000000044,380.0000000000017,220.00000000000097,-130.00000000000057,-100.00000000000044,230.00000000000102,20.00000000000009,20.00000000000009,40.00000000000018,20.00000000000009,-0.0,-0.0
-10.000000000000044,240.00000000000108,150.00000000000065,-70.00000000000031,-80.00000000000036,150.00000000000065,20.00000000000009,10.000000000000044,30.000000000000135,10.000000000000044,-0.0,-0.0
-20.00000000000009,140.00000000000063,100.00000000000044,-20.00000000000009,-70.00000000000031,90.0000000000004,20.00000000000009,10.000000000000044,30.000000000000135,10.000000000000044,-0.0,-0.0
-30.000000000000135,80.00000000000036,70.00000000000031,-0.0,-50.00000000000022,50.00000000000022,20.00000000000009,-0.0,30.000000000000135,10.000000000000044,-0.0,-0.0
-30.000000000000135,40.00000000000018,60.00000000000027,-0.0,-40.00000000000018,40.00000000000018,10.000000000000044,-0.0,30.000000000000135,10.000000000000044,-10.000000000000044,-0.0
-30.000000000000135,20.00000000000009,50.00000000000022,-0.0,-40.00000000000018,30.000000000000135,10.000000000000044,-0.0,30.000000000000135,10.000000000000044,-10.000000000000044,-10.000000000000044
-30.000000000000135,10.000000000000044,40.00000000000018,-0.0,-30.000000000000135,20.00000000000009,10.000000000000044,-0.0,30.000000000000135,10.000000000000044,-10.000000000000044,-10.000000000000044
-30.000000000000135,10.000000000000044,30.000000000000135,-0.0,-30.000000000000135,20.00000000000009,10.000000000000044,-0.0,30.000000000000135,-0.0,-10.000000000000044,-10.000000000000044
-30.000000000000135,-0.0,30.000000000000135,10.000000000000044,-30.000000000000135,10.000000000000044,10.000000000000044,10.000000000000044,30.000000000000135,-0.0,-10.000000000000044,-10.000000000000044
-40.00000000000018,-0.0,30.000000000000135,20.00000000000009,-30.000000000000135,10.000000000000044,10.000000000000044,10.000000000000044,30.000000000000135,-0.0,-10.000000000000044,-10.000000000000044
-50.00000000000022,-0.0,30.000000000000135,20.00000000000009,-40.00000000000018,-0.0,-0.0,10.000000000000044,30.000000000000135,-0.0,-20.00000000000009,-10.000000000000044
-50.00000000000022,-10.000000000000044,30.000000000000135,30.000000000000135,-40.00000000000018,-0.0,-0.0,20.00000000000009,30.000000000000135,-0.0,-10.000000000000044,-10.000000000000044
-50.00000000000022,-10.000000000000044,30.000000000000135,30.000000000000135,-40.00000000000018,-0.0,-0.0,20.00000000000009,40.00000000000018,10.000000000000044,-10.000000000000044,-10.000000000000044
-50.00000000000022,-20.00000000000009,20.00000000000009,30.000000000000135,-40.00000000000018,-0.0,-0.0,30.000000000000135,40.00000000000018,10.000000000000044,-10.000000000000044,-0.0
-40.00000000000018,-20.00000000000009,20.00000000000009,30.000000000000135,-30.000000000000135,-0.0,-0.0,30.000000000000135,40.00000000000018,10.000000000000044,-0.0,-0.0
-40.00000000000018,-20.00000000000009,20.00000000000009,30.000000000000135,-30.000000000000135,-0.0,10.000000000000044,40.00000000000018,50.00000000000022,20.00000000000009,-0.0,-0.0
-40.00000000000018,-20.00000000000009,20.00000000000009,30.000000000000135,-30.000000000000135,-0.0,10.000000000000044,40.00000000000018,50.00000000000022,20.00000000000009,-0.0,-0.0
-40.00000000000018,-20.00000000000009,10.000000000000044,30.000000000000135,-30.000000000000135,-0.0,10.000000000000044,40.00000000000018,50.00000000000022,20.00000000000009,-0.0,-0.0
-40.00000000000018,-20.00000000000009,10.000000000000044,30.000000000000135,-20.00000000000009,-0.0,10.000000000000044,40.00000000000018,50.00000000000022,20.00000000000009,-0.0,-0.0
-40.00000000000018,-20.00000000000009,-0.0,30.000000000000135,-20.00000000000009,-0.0,-0.0,40.00000000000018,50.00000000000022,20.00000000000009,-0.0,-0.0
-40.00000000000018,-30.000000000000135,-0.0,30.000000000000135,-20.00000000000009,-10.000000000000044,-0.0,40.00000000000018,40.00000000000018,10.000000000000044,-0.0,-0.0
-30.000000000000135,-30.000000000000135,-0.0,30.000000000000135,-10.000000000000044,-20.00000000000009,-0.0,40.00000000000018,40.00000000000018,10.000000000000044,-0.0,-0.0
-30.000000000000135,-40.00000000000018,-0.0,30.000000000000135,-10.000000000000044,-20.00000000000009,-0.0,40.00000000000018,40.00000000000018,10.000000000000044,-0.0,-0.0
-30.000000000000135,-40.00000000000018,-10.000000000000044,30.000000000000135,-10.000000000000044,-20.00000000000009,-0.0,30.000000000000135,40.00000000000018,10.000000000000044,-0.0,-0.0
-30.000000000000135,-40.00000000000018,-10.000000000000044,30.000000000000135,-0.0,-20.00000000000009,-0.0,30.000000000000135,40.00000000000018,10.000000000000044,-0.0,-0.0
-20.00000000000009,-40.00000000000018,-10.000000000000044,30.000000000000135,-0.0,-30.000000000000135,-0.0,30.000000000000135,30.000000000000135,10.000000000000044,-10.000000000000044,-0.0
-20.00000000000009,-40.00000000000018,-10.000000000000044,30.000000000000135,-0.0,-30.000000000000135,-0.0,30.000000000000135,30.000000000000135,10.000000000000044,-10.000000000000044,-0.0
-20.00000000000009,-40.00000000000018,-20.00000000000009,30.000000000000135,-0.0,-30.000000000000135,-0.0,30.000000000000135,40.00000000000018,-0.0,-0.0,-0.0
-20.00000000000009,-40.00000000000018,-10.000000000000044,30.000000000000135,-0.0,-30.000000000000135,-0.0,30.000000000000135,30.000000000000135,-0.0,-0.0,-0.0
-20.00000000000009,-40.00000000000018,-10.000000000000044,20.00000000000009,-0.0,-20.00000000000009,-0.0,30.000000000000135,30.000000000000135,10.000000000000044,-0.0,-0.0
-10.000000000000044,-40.00000000000018,-10.000000000000044,20.00000000000009,-0.0,-20.00000000000009,-0.0,30.000000000000135,30.000000000000135,-0.0,-0.0,-0.0
-10.000000000000044,-30.000000000000135,-10.000000000000044,10.000000000000044,-0.0,-20.00000000000009,-0.0,30.000000000000135,30.000000000000135,-0.0,-0.0,-0.0
-10.000000000000044,-30.000000000000135,-10.000000000000044,10.000000000000044,-0.0,-10.000000000000044,-0.0,30.000000000000135,30.000000000000135,-0.0,-0.0,-0.0
-0.0,-20.00000000000009,-10.000000000000044,10.000000000000044,-0.0,-10.000000000000044,-0.0,30.000000000000135,30.000000000000135,-0.0,-0.0,-0.0
-0.0,-20.00000000000009,-10.000000000000044,-0.0,-0.0,-10.000000000000044,-0.0,30.000000000000135,20.00000000000009,-0.0,-0.0,-0.0
-0.0,-20.00000000000009,-10.000000000000044,-0.0,-0.0,-10.000000000000044,-0.0,30.000000000000135,20.00000000000009,-0.0,-0.0,-0.0
-0.0,-10.000000000000044,-10.000000000000044,-0.0,-0.0,-10.000000000000044,-0.0,30.000000000000135,20.00000000000009,-0.0,-0.0,-0.0
-0.0,-10.000000000000044,-10.000000000000044,-0.0,10.000000000000044,-10.000000000000044,-0.0,30.000000000000135,20.00000000000009,-0.0,-0.0,-0.0
10.000000000000044,-0.0,-20.00000000000009,-0.0,10.000000000000044,-0.0,-0.0,30.000000000000135,20.00000000000009,-0.0,-0.0,-0.0
20.00000000000009,-0.0,-20.00000000000009,-10.000000000000044,20.00000000000009,-0.0,-0.0,30.000000000000135,20.00000000000009,-0.0,-0.0,-0.0
30.000000000000135,-0.0,-20.00000000000009,-20.00000000000009,20.00000000000009,-0.0,-0.0,30.000000000000135,20.00000000000009,-0.0,-0.0,-0.0
40.00000000000018,-0.0,-20.00000000000009,-20.00000000000009,30.000000000000135,-0.0,10.000000000000044,30.000000000000135,20.00000000000009,-0.0,-0.0,-0.0
40.00000000000018,10.000000000000044,-30.000000000000135,-30.000000000000135,30.000000000000135,-0.0,10.000000000000044,30.000000000000135,20.00000000000009,-0.0,-0.0,-0.0
50.00000000000022,10.000000000000044,-40.00000000000018,-30.000000000000135,40.00000000000018,-10.000000000000044,10.000000000000044,30.000000000000135,20.00000000000009,-0.0,-0.0,-0.0
60.00000000000027,10.000000000000044,-50.00000000000022,-40.00000000000018,50.00000000000022,-10.000000000000044,10.000000000000044,30.000000000000135,20.00000000000009,-0.0,-0.0,-0.0
70.00000000000031,10.000000000000044,-60.00000000000027,-40.00000000000018,60.00000000000027,-20.00000000000009,10.000000000000044,30.000000000000135,20.00000000000009,-0.0,-0.0,-0.0
70.00000000000031,-0.0,-70.00000000000031,-40.00000000000018,70.00000000000031,-30.000000000000135,10.000000000000044,30.000000000000135,20.00000000000009,-0.0,-0.0,-0.0
80.00000000000036,-0.0,-90.0000000000004,-40.00000000000018,80.00000000000036,-40.00000000000018,10.000000000000044,30.000000000000135,20.00000000000009,-0.0,-0.0,-0.0
90.0000000000004,-0.0,-100.00000000000044,-40.00000000000018,90.0000000000004,-50.00000000000022,10.000000000000044,30.000000000000135,20.00000000000009,-0.0,-0.0,-0.0
90.0000000000004,-10.000000000000044,-120.00000000000054,-30.000000000000135,100.00000000000044,-70.00000000000031,10.000000000000044,30.000000000000135,10.000000000000044,-0.0,-0.0,-0.0
100.00000000000044,-20.00000000000009,-140.00000000000063,-30.000000000000135,110.00000000000048,-80.00000000000036,10.000000000000044,30.000000000000135,10.000000000000044,-0.0,-0.0,-0.0
110.00000000000048,-30.000000000000135,-150.00000000000065,-30.000000000000135,120.00000000000054,-90.0000000000004,10.000000000000044,30.000000000000135,10.000000000000044,-0.0,-0.0,-0.0
110.00000000000048,-30.000000000000135,-160.0000000000007,-30.000000000000135,130.00000000000057,-100.00000000000044,10.000000000000044,20.00000000000009,10.000000000000044,-0.0,-0.0,-0.0
110.00000000000048,-40.00000000000018,-180.0000000000008,-30.000000000000135,140.00000000000063,-110.00000000000048,20.00000000000009,20.00000000000009,10.000000000000044,-0.0,-0.0,-0.0
120.00000000000054,-50.00000000000022,-190.00000000000085,-30.000000000000135,150.00000000000065,-120.00000000000054,20.00000000000009,20.00000000000009,10.000000000000044,-0.0,-0.0,-0.0
130.00000000000057,-60.00000000000027,-200.00000000000088,-30.000000000000135,160.0000000000007,-130.00000000000057,20.00000000000009,20.00000000000009,10.000000000000044,-0.0,-0.0,-0.0
130.00000000000057,-60.00000000000027,-210.00000000000094,-30.000000000000135,170.00000000000077,-140.00000000000063,20.00000000000009,20.00000000000009,-0.0,-0.0,-0.0,-0.0
140.00000000000063,-70.00000000000031,-220.00000000000097,-30.000000000000135,180.0000000000008,-140.00000000000063,20.00000000000009,20.00000000000009,-0.0,-0.0,-0.0,-0.0
140.00000000000063,-70.00000000000031,-220.00000000000097,-30.000000000000135,180.0000000000008,-150.00000000000065,20.00000000000009,10.000000000000044,-0.0,-0.0,-0.0,-0.0
150.00000000000065,-70.00000000000031,-220.00000000000097,-30.000000000000135,190.00000000000085,-150.00000000000065,20.00000000000009,10.000000000000044,-0.0,-0.0,-0.0,-0.0
150.00000000000065,-70.00000000000031,-230.00000000000102,-30.000000000000135,190.00000000000085,-150.00000000000065,20.00000000000009,10.000000000000044,-0.0,-10.000000000000044,-0.0,-0.0
150.00000000000065,-70.00000000000031,-230.00000000000102,-30.000000000000135,190.00000000000085,-150.00000000000065,20.00000000000009,10.000000000000044,-0.0,-10.000000000000044,-0.0,-0.0
150.00000000000065,-70.00000000000031,-220.00000000000097,-30.000000000000135,180.0000000000008,-150.00000000000065,20.00000000000009,10.000000000000044,-0.0,-10.000000000000044,-0.0,-0.0
140.00000000000063,-70.00000000000031,-220.00000000000097,-30.000000000000135,180.0000000000008,-140.00000000000063,20.00000000000009,10.000000000000044,-0.0,-10.000000000000044,-0.0,-0.0
130.00000000000057,-70.00000000000031,-210.00000000000094,-30.000000000000135,170.00000000000077,-140.00000000000063,20.00000000000009,10.000000000000044,-0.0,-10.000000000000044,-0.0,-0.0
130.00000000000057,-70.00000000000031,-200.00000000000088,-30.000000000000135,160.0000000000007,-130.00000000000057,20.00000000000009,10.000000000000044,-0.0,-10.000000000000044,-0.0,-0.0
120.00000000000054,-70.00000000000031,-190.00000000000085,-20.00000000000009,150.00000000000065,-130.00000000000057,30.000000000000135,10.000000000000044,-0.0,-10.000000000000044,-0.0,-0.0
110.00000000000048,-70.00000000000031,-180.0000000000008,-20.00000000000009,140.00000000000063,-120.00000000000054,30.000000000000135,10.000000000000044,-0.0,-10.000000000000044,-0.0,-0.0
100.00000000000044,-60.00000000000027,-170.00000000000077,-10.000000000000044,130.00000000000057,-120.00000000000054,30.000000000000135,10.000000000000044,-0.0,-10.000000000000044,-0.0,-0.0
80.00000000000036,-60.00000000000027,-160.0000000000007,-10.000000000000044,110.00000000000048,-110.00000000000048,30.000000000000135,10.000000000000044,-0.0,-10.000000000000044,-0.0,-0.0
70.00000000000031,-60.00000000000027,-140.00000000000063,-0.0,100.00000000000044,-100.00000000000044,30.000000000000135,10.000000000000044,-0.0,-10.000000000000044,-0.0,-0.0
60.00000000000027,-60.00000000000027,-130.00000000000057,-0.0,90.0000000000004,-100.00000000000044,30.000000000000135,10.000000000000044,-0.0,-10.000000000000044,-0.0,-0.0
40.00000000000018,-60.00000000000027,-120.00000000000054,-0.0,80.00000000000036,-90.0000000000004,30.000000000000135,10.000000000000044,-0.0,-10.000000000000044,-0.0,-0.0
30.000000000000135,-60.00000000000027,-100.00000000000044,10.000000000000044,60.00000000000027,-80.00000000000036,30.000000000000135,-0.0,-0.0,-20.00000000000009,-0.0,-0.0
20.00000000000009,-60.00000000000027,-90.0000000000004,10.000000000000044,50.00000000000022,-70.00000000000031,30.000000000000135,-0.0,-0.0,-20.00000000000009,-0.0,-0.0
10.000000000000044,-60.00000000000027,-80.00000000000036,10.000000000000044,40.00000000000018,-70.00000000000031,30.000000000000135,-0.0,-0.0,-20.00000000000009,-0.0,-0.0
10.000000000000044,-60.00000000000027,-70.00000000000031,10.000000000000044,40.00000000000018,-60.00000000000027,20.00000000000009,-0.0,-10.000000000000044,-20.00000000000009,-0.0,-0.0
-0.0,-50.00000000000022,-60.00000000000027,10.000000000000044,30.000000000000135,-50.00000000000022,20.00000000000009,-0.0,-10.000000000000044,-20.00000000000009,-0.0,-0.0
-0.0,-50.00000000000022,-50.00000000000022,10.000000000000044,30.000000000000135,-50.00000000000022,20.00000000000009,-0.0,-10.000000000000044,-20.00000000000009,-0.0,-0.0
-0.0,-50.00000000000022,-50.00000000000022,10.000000000000044,20.00000000000009,-50.00000000000022,20.00000000000009,-0.0,-20.00000000000009,-20.00000000000009,-0.0,-0.0
-0.0,-40.00000000000018,-40.00000000000018,10.000000000000044,10.000000000000044,-40.00000000000018,10.000000000000044,-0.0,-20.00000000000009,-30.000000000000135,-0.0,-10.000000000000044
-0.0,-40.00000000000018,-30.000000000000135,10.000000000000044,10.000000000000044,-30.000000000000135,10.000000000000044,-0.0,-20.00000000000009,-30.000000000000135,-0.0,-10.000000000000044
-0.0,-30.000000000000135,-20.00000000000009,10.000000000000044,10.000000000000044,-20.00000000000009,-0.0,-10.000000000000044,-30.000000000000135,-30.000000000000135,-10.000000000000044,-10.000000000000044
-0.0,-30.000000000000135,-20.00000000000009,10.000000000000044,-0.0,-20.00000000000009,-0.0,-10.000000000000044,-30.000000000000135,-30.000000000000135,-10.000000000000044,-10.000000000000044
-0.0,-20.00000000000009,-10.000000000000044,-0.0,-0.0,-10.000000000000044,-0.0,-20.00000000000009,-30.000000000000135,-40.00000000000018,-10.000000000000044,-10.000000000000044
-0.0,-10.000000000000044,-0.0,-0.0,-0.0,-0.0,-0.0,-20.00000000000009,-40.00000000000018,-40.00000000000018,-10.000000000000044,-20.00000000000009
-0.0,-10.000000000000044,-0.0,-0.0,-0.0,-0.0,-0.0,-30.000000000000135,-40.00000000000018,-40.00000000000018,-20.00000000000009,-20.00000000000009
-0.0,-0.0,-0.0,-0.0,-0.0,-0.0,-10.000000000000044,-30.000000000000135,-40.00000000000018,-40.00000000000018,-20.00000000000009,-20.00000000000009
-0.0,-0.0,-0.0,-0.0,-0.0,-0.0,-10.000000000000044,-30.000000000000135,-50.00000000000022,-40.00000000000018,-20.00000000000009,-20.00000000000009
-0.0,-0.0,10.000000000000044,-0.0,-0.0,10.000000000000044,-10.000000000000044,-40.00000000000018,-50.00000000000022,-40.00000000000018,-20.00000000000009,-20.00000000000009
-0.0,10.000000000000044,10.000000000000044,-0.0,-10.000000000000044,10.000000000000044,-10.000000000000044,-40.00000000000018,-50.00000000000022,-40.00000000000018,-20.00000000000009,-20.00000000000009
-0.0,10.000000000000044,20.00000000000009,-0.0,-10.000000000000044,20.00000000000009,-10.000000000000044,-40.00000000000018,-40.00000000000018,-30.000000000000135,-20.00000000000009,-20.00000000000009
-0.0,20.00000000000009,30.000000000000135,-10.000000000000044,-20.00000000000009,30.000000000000135,-10.000000000000044,-40.00000000000018,-40.00000000000018,-30.000000000000135,-10.000000000000044,-10.000000000000044
-0.0,20.00000000000009,40.00000000000018,-10.000000000000044,-20.00000000000009,30.000000000000135,-10.000000000000044,-30.000000000000135,-30.000000000000135,-20.00000000000009,-10.000000000000044,-10.000000000000044
-0.0,30.000000000000135,40.00000000000018,-10.000000000000044,-20.00000000000009,40.00000000000018,-0.0,-30.000000000000135,-20.00000000000009,-10.000000000000044,-0.0,-0.0
-0.0,40.00000000000018,50.00000000000022,-20.00000000000009,-20.00000000000009,40.00000000000018,-0.0,-20.00000000000009,-20.00000000000009,-10.000000000000044,-0.0,-0.0
-0.0,40.00000000000018,50.00000000000022,-20.00000000000009,-30.000000000000135,50.00000000000022,-0.0,-20.00000000000009,-10.000000000000044,-0.0,-0.0,-0.0
-0.0,50.00000000000022,50.00000000000022,-20.00000000000009,-20.00000000000009,50.00000000000022,-0.0,-20.00000000000009,-10.000000000000044,-0.0,10.000000000000044,-0.0
-0.0,50.00000000000022,50.00000000000022,-20.00000000000009,-30.000000000000135,50.00000000000022,-0.0,-20.00000000000009,-10.000000000000044,-0.0,10.000000000000044,-0.0
-0.0,50.00000000000022,60.00000000000027,-20.00000000000009,-20.00000000000009,60.00000000000027,-10.000000000000044,-30.000000000000135,-10.000000000000044,-0.0,20.00000000000009,10.000000000000044
-0.0,60.00000000000027,50.00000000000022,-30.000000000000135,-20.00000000000009,50.00000000000022,-10.000000000000044,-30.000000000000135,-10.000000000000044,-0.0,20.00000000000009,10.000000000000044
-0.0,60.00000000000027,50.00000000000022,-30.000000000000135,-20.00000000000009,50.00000000000022,-20.00000000000009,-40.00000000000018,-10.000000000000044,-0.0,30.000000000000135,20.00000000000009
-0.0,60.00000000000027,50.00000000000022,-30.000000000000135,-20.00000000000009,50.00000000000022,-30.000000000000135,-40.00000000000018,-10.000000000000044,10.000000000000044,30.000000000000135,20.00000000000009
-0.0,60.00000000000027,50.00000000000022,-30.000000000000135,-20.00000000000009,50.00000000000022,-40.00000000000018,-50.00000000000022,-10.000000000000044,10.000000000000044,40.00000000000018,30.000000000000135
-0.0,50.00000000000022,40.00000000000018,-20.00000000000009,-20.00000000000009,50.00000000000022,-40.00000000000018,-50.00000000000022,-0.0,20.00000000000009,50.00000000000022,40.00000000000018
-0.0,50.00000000000022,40.00000000000018,-20.00000000000009,-10.000000000000044,40.00000000000018,-40.00000000000018,-40.00000000000018,-0.0,20.00000000000009,60.00000000000027,40.00000000000018
-0.0,40.00000000000018,40.00000000000018,-20.00000000000009,-10.000000000000044,40.00000000000018,-40.00000000000018,-40.00000000000018,-0.0,30.000000000000135,60.00000000000027,50.00000000000022
-0.0,40.00000000000018,40.00000000000018,-20.00000000000009,-10.000000000000044,40.00000000000018,-40.00000000000018,-30.000000000000135,-0.0,30.000000000000135,60.00000000000027,50.00000000000022
-0.0,40.00000000000018,40.00000000000018,-20.00000000000009,-10.000000000000044,40.00000000000018,-40.00000000000018,-20.00000000000009,-0.0,30.000000000000135,70.00000000000031,50.00000000000022
-0.0,40.00000000000018,30.000000000000135,-20.00000000000009,-10.000000000000044,40.00000000000018,-40.00000000000018,-20.00000000000009,-0.0,20.00000000000009,60.00000000000027,50.00000000000022
-0.0,40.00000000000018,30.000000000000135,-20.00000000000009,-10.000000000000044,30.000000000000135,-40.00000000000018,-20.00000000000009,-0.0,10.000000000000044,50.00000000000022,40.00000000000018
-0.0,40.00000000000018,30.000000000000135,-10.000000000000044,-10.000000000000044,30.000000000000135,-40.00000000000018,-20.00000000000009,-10.000000000000044,-0.0,40.00000000000018,30.000000000000135
-0.0,30.000000000000135,20.00000000000009,-10.000000000000044,-10.000000000000044,20.00000000000009,-30.000000000000135,-20.00000000000009,-20.00000000000009,-0.0,30.000000000000135,20.00000000000009
-0.0,20.00000000000009,20.00000000000009,-10.000000000000044,-10.000000000000044,20.00000000000009,-30.000000000000135,-30.000000000000135,-40.00000000000018,-20.00000000000009,20.00000000000009,10.000000000000044
-0.0,20.00000000000009,10.000000000000044,-0.0,-10.000000000000044,10.000000000000044,-30.000000000000135,-40.00000000000018,-60.00000000000027,-40.00000000000018,-0.0,-0.0
-0.0,10.000000000000044,10.000000000000044,-0.0,-0.0,-0.0,-30.000000000000135,-50.00000000000022,-70.00000000000031,-50.00000000000022,-0.0,-0.0
-0.0,-0.0,-0.0,-0.0,-0.0,-0.0,-30.000000000000135,-60.00000000000027,-80.00000000000036,-60.00000000000027,-10.000000000000044,-10.000000000000044
-0.0,-0.0,-0.0,-0.0,-0.0,-0.0,-30.000000000000135,-70.00000000000031,-90.0000000000004,-70.00000000000031,-20.00000000000009,-20.00000000000009
-0.0,-0.0,-0.0,-0.0,-0.0,-0.0,-30.000000000000135,-70.00000000000031,-90.0000000000004,-70.00000000000031,-30.000000000000135,-20.00000000000009
-0.0,-0.0,-0.0,-0.0,-0.0,-0.0,-20.00000000000009,-80.00000000000036,-90.0000000000004,-80.00000000000036,-30.000000000000135,-30.000000000000135
-0.0,-0.0,-10.000000000000044,-0.0,-0.0,-10.000000000000044,-20.00000000000009,-80.00000000000036,-100.00000000000044,-70.00000000000031,-30.000000000000135,-30.000000000000135
-0.0,-10.000000000000044,-10.000000000000044,-0.0,-0.0,-10.000000000000044,-30.000000000000135,-90.0000000000004,-100.00000000000044,-70.00000000000031,-30.000000000000135,-30.000000000000135
-0.0,-10.000000000000044,-10.000000000000044,10.000000000000044,-0.0,-10.000000000000044,-30.000000000000135,-90.0000000000004,-100.00000000000044,-80.00000000000036,-30.000000000000135,-30.000000000000135
-0.0,-20.00000000000009,-10.000000000000044,10.000000000000044,-0.0,-20.00000000000009,-30.000000000000135,-90.0000000000004,-90.0000000000004,-80.00000000000036,-30.000000000000135,-30.000000000000135
-0.0,-20.00000000000009,-20.00000000000009,10.000000000000044,-0.0,-20.00000000000009,-20.00000000000009,-70.00000000000031,-60.00000000000027,-80.00000000000036,-40.00000000000018,-40.00000000000018
-0.0,-20.00000000000009,-20.00000000000009,10.000000000000044,-0.0,-20.00000000000009,-10.000000000000044,-20.00000000000009,-10.000000000000044,-80.00000000000036,-60.00000000000027,-60.00000000000027
-0.0,-20.00000000000009,-20.00000000000009,10.000000000000044,-0.0,-20.00000000000009,20.00000000000009,40.00000000000018,80.00000000000036,-40.00000000000018,-70.00000000000031,-70.00000000000031
-0.0,-20.00000000000009,-20.00000000000009,-0.0,-0.0,-20.00000000000009,60.00000000000027,140.00000000000063,200.00000000000088,20.00000000000009,-70.00000000000031,-70.00000000000031
-0.0,-20.00000000000009,-20.00000000000009,-0.0,-0.0,-20.00000000000009,100.00000000000044,250.0000000000011,340.00000000000153,130.00000000000057,-40.00000000000018,-40.00000000000018
-0.0,-20.00000000000009,-20.00000000000009,-0.0,10.000000000000044,-20.00000000000009,120.00000000000054,340.00000000000153,470.0000000000021,290.0000000000013,30.000000000000135,20.00000000000009
-0.0,-20.00000000000009,-20.00000000000009,-0.0,10.000000000000044,-20.00000000000009,100.00000000000044,390.0000000000017,550.0000000000024,520.0000000000023,160.0000000000007,140.00000000000063
-0.0,-20.00000000000009,-20.00000000000009,-0.0,10.000000000000044,-20.00000000000009,40.00000000000018,340.00000000000153,580.0000000000026,780.0000000000034,380.0000000000017,320.0000000000014
-0.0,-20.00000000000009,-30.000000000000135,-0.0,10.000000000000044,-20.00000000000009,-70.00000000000031,200.00000000000088,520.0000000000023,1050.0000000000048,650.0000000000028,550.0000000000024
-0.0,-20.00000000000009,-30.000000000000135,10.000000000000044,10.000000000000044,-30.000000000000135,-210.00000000000094,-20.00000000000009,420.0000000000019,1310.000000000006,960.0000000000043,800.0000000000035
-0.0,-30.000000000000135,-30.000000000000135,10.000000000000044,10.000000000000044,-30.000000000000135,-370.00000000000165,-290.0000000000013,270.0000000000012,1500.0000000000066,1250.0000000000055,1030.0000000000045
-0.0,-30.000000000000135,-30.000000000000135,10.000000000000044,10.000000000000044,-30.000000000000135,-520.0000000000023,-570.0000000000025,110.00000000000048,1600.000000000007,1480.0000000000066,1220.0000000000055
-0.0,-30.000000000000135,-30.000000000000135,20.00000000000009,10.000000000000044,-30.000000000000135,-630.0000000000028,-820.0000000000036,-60.00000000000027,1570.000000000007,1610.000000000007,1320.000000000006
-0.0,-40.00000000000018,-40.00000000000018,20.00000000000009,10.000000000000044,-40.00000000000018,-700.0000000000031,-1010.0000000000044,-210.00000000000094,1440.0000000000064,1630.0000000000073,1320.000000000006
-0.0,-40.00000000000018,-30.000000000000135,20.00000000000009,10.000000000000044,-30.000000000000135,-710.0000000000032,-1120.000000000005,-320.0000000000014,1210.0000000000055,1520.0000000000068,1230.0000000000055
-0.0,-40.00000000000018,-40.00000000000018,10.000000000000044,10.000000000000044,-40.00000000000018,-670.000000000003,-1140.000000000005,-390.0000000000017,940.0000000000042,1330.000000000006,1070.0000000000048
-0.0,-40.00000000000018,-30.000000000000135,10.000000000000044,10.000000000000044,-30.000000000000135,-600.0000000000026,-1070.0000000000048,-420.0000000000019,670.000000000003,1070.0000000000048,860.0000000000039
-0.0,-30.000000000000135,-30.000000000000135,10.000000000000044,10.000000000000044,-30.000000000000135,-500.0000000000022,-940.0000000000042,-390.0000000000017,420.0000000000019,800.0000000000035,640.0000000000028
-0.0,-30.000000000000135,-30.000000000000135,10.000000000000044,10.000000000000044,-30.000000000000135,-390.0000000000017,-780.0000000000034,-340.00000000000153,220.00000000000097,550.0000000000024,440.00000000000193
-0.0,-30.000000000000135,-30.000000000000135,10.000000000000044,10.000000000000044,-30.000000000000135,-290.0000000000013,-610.0000000000027,-270.0000000000012,70.00000000000031,330.0000000000015,260.00000000000114
-0.0,-30.000000000000135,-30.000000000000135,10.000000000000044,10.000000000000044,-30.000000000000135,-190.00000000000085,-450.000000000002,-200.00000000000088,-20.00000000000009,150.00000000000065,120.00000000000054
-0.0,-30.000000000000135,-30.000000000000135,10.000000000000044,10.000000000000044,-30.000000000000135,-120.00000000000054,-310.00000000000136,-150.00000000000065,-80.00000000000036,30.000000000000135,30.000000000000135
-0.0,-30.000000000000135,-30.000000000000135,10.000000000000044,10.000000000000044,-30.000000000000135,-70.00000000000031,-200.00000000000088,-100.00000000000044,-110.00000000000048,-40.00000000000018,-30.000000000000135
-0.0,-40.00000000000018,-30.000000000000135,20.00000000000009,10.000000000000044,-30.000000000000135,-30.000000000000135,-130.00000000000057,-70.00000000000031,-100.00000000000044,-80.00000000000036,-50.00000000000022
-0.0,-40.00000000000018,-30.000000000000135,20.00000000000009,10.000000000000044,-30.000000000000135,-10.000000000000044,-80.00000000000036,-50.00000000000022,-90.0000000000004,-90.0000000000004,-60.00000000000027
-10.000000000000044,-40.00000000000018,-30.000000000000135,20.00000000000009,-0.0,-30.000000000000135,-0.0,-50.00000000000022,-30.000000000000135,-70.00000000000031,-80.00000000000036,-60.00000000000027
-10.000000000000044,-40.00000000000018,-20.00000000000009,20.00000000000009,-0.0,-30.000000000000135,-0.0,-30.000000000000135,-10.000000000000044,-70.00000000000031,-80.00000000000036,-60.00000000000027
-10.000000000000044,-40.00000000000018,-20.00000000000009,20.00000000000009,-0.0,-20.00000000000009,-0.0,-10.000000000000044,-0.0,-70.00000000000031,-80.00000000000036,-60.00000000000027
-10.000000000000044,-30.000000000000135,-20.00000000000009,20.00000000000009,-0.0,-20.00000000000009,10.000000000000044,-0.0,-0.0,-80.00000000000036,-90.0000000000004,-70.00000000000031
-10.000000000000044,-30.000000000000135,-10.000000000000044,20.00000000000009,-0.0,-20.00000000000009,10.000000000000044,-0.0,-0.0,-80.00000000000036,-90.0000000000004,-80.00000000000036
-10.000000000000044,-30.000000000000135,-10.000000000000044,20.00000000000009,-0.0,-20.00000000000009,20.00000000000009,20.00000000000009,-0.0,-80.00000000000036,-90.0000000000004,-80.00000000000036
-10.000000000000044,-30.000000000000135,-10.000000000000044,20.00000000000009,-0.0,-20.00000000000009,20.00000000000009,30.000000000000135,10.000000000000044,-70.00000000000031,-90.0000000000004,-80.00000000000036
-10.000000000000044,-30.000000000000135,-10.000000000000044,10.000000000000044,-0.0,-20.00000000000009,20.00000000000009,50.00000000000022,20.00000000000009,-70.00000000000031,-90.0000000000004,-80.00000000000036
-10.000000000000044,-20.00000000000009,-10.000000000000044,10.000000000000044,-0.0,-10.000000000000044,20.00000000000009,60.00000000000027,30.000000000000135,-60.00000000000027,-90.0000000000004,-80.00000000000036
-10.000000000000044,-20.00000000000009,-10.000000000000044,10.000000000000044,-0.0,-10.000000000000044,30.000000000000135,70.00000000000031,40.00000000000018,-50.00000000000022,-80.00000000000036,-70.00000000000031
-0.0,-20.00000000000009,-10.000000000000044,10.000000000000044,-0.0,-10.000000000000044,30.000000000000135,80.00000000000036,60.00000000000027,-50.00000000000022,-80.00000000000036,-70.00000000000031
-0.0,-20.00000000000009,-10.000000000000044,10.000000000000044,-0.0,-10.000000000000044,30.000000000000135,90.0000000000004,70.00000000000031,-40.00000000000018,-80.00000000000036,-70.00000000000031
-0.0,-20.00000000000009,-10.000000000000044,10.000000000000044,-0.0,-10.000000000000044,30.000000000000135,100.00000000000044,80.00000000000036,-30.000000000000135,-70.00000000000031,-70.00000000000031
-0.0,-20.00000000000009,-0.0,10.000000000000044,-0.0,-10.000000000000044,30.000000000000135,100.00000000000044,90.0000000000004,-20.00000000000009,-70.00000000000031,-60.00000000000027
-0.0,-10.000000000000044,-0.0,-0.0,-0.0,-0.0,30.000000000000135,110.00000000000048,100.00000000000044,-20.00000000000009,-70.00000000000031,-60.00000000000027
-10.000000000000044,-10.000000000000044,-0.0,-0.0,-0.0,-0.0,30.000000000000135,120.00000000000054,110.00000000000048,-20.00000000000009,-60.00000000000027,-60.00000000000027
-10.000000000000044,-0.0,-0.0,-0.0,-0.0,-0.0,30.000000000000135,120.00000000000054,120.00000000000054,-10.000000000000044,-60.00000000000027,-60.00000000000027
-10.000000000000044,-0.0,10.000000000000044,-0.0,-10.000000000000044,-0.0,30.000000000000135,130.00000000000057,120.00000000000054,-10.000000000000044,-60.00000000000027,-60.00000000000027
-10.000000000000044,-0.0,10.000000000000044,-0.0,-10.000000000000044,-0.0,30.000000000000135,130.00000000000057,130.00000000000057,-0.0,-60.00000000000027,-60.00000000000027
-10.000000000000044,-0.0,20.00000000000009,-0.0,-20.00000000000009,10.000000000000044,30.000000000000135,140.00000000000063,140.00000000000063,-0.0,-50.00000000000022,-60.00000000000027
-20.00000000000009,-0.0,20.00000000000009,-0.0,-20.00000000000009,10.000000000000044,30.000000000000135,150.00000000000065,150.00000000000065,-0.0,-50.00000000000022,-50.00000000000022
-20.00000000000009,-0.0,20.00000000000009,-0.0,-20.00000000000009,10.000000000000044,30.000000000000135,150.00000000000065,150.00000000000065,-0.0,-50.00000000000022,-50.00000000000022
-20.00000000000009,-0.0,20.00000000000009,-0.0,-20.00000000000009,10.000000000000044,30.000000000000135,160.0000000000007,160.0000000000007,-0.0,-50.00000000000022,-50.00000000000022
-10.000000000000044,-0.0,20.00000000000009,-0.0,-20.00000000000009,10.000000000000044,30.000000000000135,170.00000000000077,170.00000000000077,10.000000000000044,-50.00000000000022,-50.00000000000022
-10.000000000000044,-0.0,10.000000000000044,-0.0,-10.000000000000044,-0.0,30.000000000000135,180.0000000000008,180.0000000000008,10.000000000000044,-40.00000000000018,-50.00000000000022
-10.000000000000044,-0.0,10.000000000000044,-0.0,-10.000000000000044,-0.0,20.00000000000009,190.00000000000085,190.00000000000085,20.00000000000009,-40.00000000000018,-50.00000000000022
-10.000000000000044,-0.0,10.000000000000044,-0.0,-10.000000000000044,-0.0,20.00000000000009,200.00000000000088,200.00000000000088,30.000000000000135,-40.00000000000018,-50.00000000000022
-0.0,-0.0,10.000000000000044,-0.0,-10.000000000000044,10.000000000000044,20.00000000000009,210.00000000000094,210.00000000000094,40.00000000000018,-40.00000000000018,-40.00000000000018
-0.0,-0.0,20.00000000000009,-0.0,-10.000000000000044,10.000000000000044,10.000000000000044,220.00000000000097,230.00000000000102,40.00000000000018,-40.00000000000018,-40.00000000000018
-0.0,10.000000000000044,30.000000000000135,-10.000000000000044,-20.00000000000009,30.000000000000135,10.000000000000044,230.00000000000102,240.00000000000108,50.00000000000022,-40.00000000000018,-40.00000000000018
-0.0,30.000000000000135,50.00000000000022,-20.00000000000009,-20.00000000000009,50.00000000000022,10.000000000000044,240.00000000000108,260.00000000000114,70.00000000000031,-40.00000000000018,-30.000000000000135
-0.0,50.00000000000022,60.00000000000027,-40.00000000000018,-30.000000000000135,60.00000000000027,20.00000000000009,260.00000000000114,280.00000000000125,80.00000000000036,-30.000000000000135,-20.00000000000009
-0.0,70.00000000000031,80.00000000000036,-50.00000000000022,-30.000000000000135,80.00000000000036,20.00000000000009,280.00000000000125,300.0000000000013,90.0000000000004,-30.000000000000135,-20.00000000000009
10.000000000000044,90.0000000000004,90.0000000000004,-60.00000000000027,-40.00000000000018,100.00000000000044,20.00000000000009,300.0000000000013,330.0000000000015,100.00000000000044,-20.00000000000009,-10.000000000000044
10.000000000000044,100.00000000000044,100.00000000000044,-70.00000000000031,-40.00000000000018,110.00000000000048,20.00000000000009,320.0000000000014,350.00000000000153,120.00000000000054,-10.000000000000044,-10.000000000000044
20.00000000000009,120.00000000000054,110.00000000000048,-80.00000000000036,-40.00000000000018,120.00000000000054,30.000000000000135,350.00000000000153,380.0000000000017,130.00000000000057,-10.000000000000044,-0.0
20.00000000000009,130.00000000000057,120.00000000000054,-90.0000000000004,-50.00000000000022,130.00000000000057,30.000000000000135,370.00000000000165,400.00000000000176,150.00000000000065,-0.0,-0.0
30.000000000000135,150.00000000000065,130.00000000000057,-100.00000000000044,-50.00000000000022,150.00000000000065,30.000000000000135,400.00000000000176,430.00000000000193,170.00000000000077,-0.0,-0.0
30.000000000000135,160.0000000000007,140.00000000000063,-110.00000000000048,-50.00000000000022,160.0000000000007,30.000000000000135,420.0000000000019,460.00000000000205,180.0000000000008,-0.0,-0.0
40.00000000000018,180.0000000000008,150.00000000000065,-120.00000000000054,-50.00000000000022,170.00000000000077,30.000000000000135,450.000000000002,480.00000000000216,200.00000000000088,10.000000000000044,10.000000000000044
40.00000000000018,200.00000000000088,160.0000000000007,-130.00000000000057,-50.00000000000022,180.0000000000008,30.000000000000135,480.00000000000216,510.0000000000023,220.00000000000097,20.00000000000009,20.00000000000009
50.00000000000022,210.00000000000094,160.0000000000007,-140.00000000000063,-50.00000000000022,190.00000000000085,30.000000000000135,500.0000000000022,540.0000000000024,240.00000000000108,40.00000000000018,30.000000000000135
50.00000000000022,220.00000000000097,170.00000000000077,-140.00000000000063,-50.00000000000022,200.00000000000088,30.000000000000135,520.0000000000023,560.0000000000025,260.00000000000114,50.00000000000022,40.00000000000018
60.00000000000027,220.00000000000097,160.0000000000007,-140.00000000000063,-50.00000000000022,190.00000000000085,30.000000000000135,550.0000000000024,590.0000000000026,280.00000000000125,70.00000000000031,50.00000000000022
60.00000000000027,220.00000000000097,150.00000000000065,-140.00000000000063,-40.00000000000018,180.0000000000008,40.00000000000018,570.0000000000025,610.0000000000027,300.0000000000013,80.00000000000036,60.00000000000027
70.00000000000031,220.00000000000097,130.00000000000057,-140.00000000000063,-30.000000000000135,170.00000000000077,40.00000000000018,590.0000000000026,630.0000000000028,310.00000000000136,100.00000000000044,80.00000000000036
60.00000000000027,200.00000000000088,120.00000000000054,-130.00000000000057,-30.000000000000135,150.00000000000065,50.00000000000022,610.0000000000027,650.0000000000028,330.0000000000015,110.00000000000048,90.0000000000004
50.00000000000022,190.00000000000085,100.00000000000044,-120.00000000000054,-20.00000000000009,130.00000000000057,50.00000000000022,620.0000000000027,670.000000000003,350.00000000000153,130.00000000000057,100.00000000000044
40.00000000000018,170.00000000000077,90.0000000000004,-100.00000000000044,-20.00000000000009,110.00000000000048,60.00000000000027,630.0000000000028,680.0000000000031,380.0000000000017,150.00000000000065,120.00000000000054
30.000000000000135,140.00000000000063,80.00000000000036,-80.00000000000036,-20.00000000000009,90.0000000000004,60.00000000000027,650.0000000000028,690.0000000000031,400.00000000000176,160.0000000000007,130.00000000000057
20.00000000000009,110.00000000000048,70.00000000000031,-60.00000000000027,-20.00000000000009,80.00000000000036,60.00000000000027,670.000000000003,710.0000000000032,420.0000000000019,170.00000000000077,140.00000000000063
-0.0,90.0000000000004,50.00000000000022,-40.00000000000018,-20.00000000000009,60.00000000000027,60.00000000000027,680.0000000000031,720.0000000000032,430.00000000000193,190.00000000000085,150.00000000000065
-0.0,70.00000000000031,40.00000000000018,-20.00000000000009,-20.00000000000009,40.00000000000018,60.00000000000027,680.0000000000031,720.0000000000032,450.000000000002,200.00000000000088,160.0000000000007
-0.0,40.00000000000018,30.000000000000135,-10.000000000000044,-10.000000000000044,20.00000000000009,60.00000000000027,690.0000000000031,720.0000000000032,460.00000000000205,210.00000000000094,170.00000000000077
-10.000000000000044,20.00000000000009,20.00000000000009,-0.0,-20.00000000000009,10.000000000000044,60.00000000000027,690.0000000000031,720.0000000000032,470.0000000000021,210.00000000000094,170.00000000000077
-10.000000000000044,10.000000000000044,20.00000000000009,-0.0,-10.000000000000044,10.000000000000044,60.00000000000027,680.0000000000031,700.0000000000031,480.00000000000216,220.00000000000097,180.0000000000008
-20.00000000000009,-0.0,20.00000000000009,-0.0,-20.00000000000009,-0.0,50.00000000000022,660.000000000003,690.0000000000031,470.0000000000021,220.00000000000097,180.0000000000008
-20.00000000000009,-0.0,20.00000000000009,10.000000000000044,-20.00000000000009,-0.0,50.00000000000022,640.0000000000028,660.000000000003,460.00000000000205,220.00000000000097,180.0000000000008
-20.00000000000009,-0.0,10.000000000000044,10.000000000000044,-20.00000000000009,-0.0,50.00000000000022,620.0000000000027,620.0000000000027,440.00000000000193,220.00000000000097,180.0000000000008
-20.00000000000009,-0.0,10.000000000000044,10.000000000000044,-20.00000000000009,-0.0,50.00000000000022,580.0000000000026,580.0000000000026,430.00000000000193,210.00000000000094,170.00000000000077
-20.00000000000009,-0.0,10.000000000000044,10.000000000000044,-10.000000000000044,-0.0,50.00000000000022,540.0000000000024,540.0000000000024,410.0000000000018,210.00000000000094,170.00000000000077
-20.00000000000009,-10.000000000000044,10.000000000000044,10.000000000000044,-10.000000000000044,-0.0,50.00000000000022,500.0000000000022,500.0000000000022,380.0000000000017,200.00000000000088,160.0000000000007
-20.00000000000009,-10.000000000000044,10.000000000000044,10.000000000000044,-10.000000000000044,-0.0,50.00000000000022,460.00000000000205,450.000000000002,350.00000000000153,190.00000000000085,150.00000000000065
-20.00000000000009,-10.000000000000044,10.000000000000044,10.000000000000044,-20.00000000000009,-0.0,50.00000000000022,410.0000000000018,400.00000000000176,320.0000000000014,180.0000000000008,140.00000000000063
-10.000000000000044,-10.000000000000044,20.00000000000009,-10.000000000000044,-20.00000000000009,20.00000000000009,50.00000000000022,370.00000000000165,350.00000000000153,280.00000000000125,160.0000000000007,130.00000000000057
10.000000000000044,10.000000000000044,50.00000000000022,-40.00000000000018,-20.00000000000009,60.00000000000027,40.00000000000018,320.0000000000014,300.0000000000013,250.0000000000011,140.00000000000063,110.00000000000048
50.00000000000022,70.00000000000031,100.00000000000044,-100.00000000000044,-20.00000000000009,130.00000000000057,40.00000000000018,270.0000000000012,250.0000000000011,220.00000000000097,120.00000000000054,100.00000000000044
