I,II,III,aVR,aVL,aVF,V1,V2,V3,V4,V5,V6
20.00000000000009,30.000000000000135,-0.0,-20.00000000000009,10.000000000000044,-0.0,-0.0,-0.0,10.000000000000044,-0.0,-0.0,-0.0
10.000000000000044,20.00000000000009,-0.0,-20.00000000000009,10.000000000000044,-0.0,20.00000000000009,20.00000000000009,20.00000000000009,-0.0,-0.0,-0.0
10.000000000000044,10.000000000000044,-0.0,-10.000000000000044,-0.0,-0.0,10.000000000000044,20.00000000000009,20.00000000000009,-0.0,-0.0,-0.0
-0.0,-0.0,-0.0,-0.0,-0.0,-0.0,10.000000000000044,20.00000000000009,30.000000000000135,-0.0,-0.0,-0.0
-0.0,-0.0,-0.0,-0.0,-0.0,-0.0,10.000000000000044,20.00000000000009,30.000000000000135,10.000000000000044,-0.0,-0.0
-0.0,-0.0,-0.0,-0.0,-0.0,-0.0,10.000000000000044,30.000000000000135,40.00000000000018,20.00000000000009,-0.0,-0.0
-0.0,-0.0,-0.0,-0.0,-0.0,-0.0,10.000000000000044,30.000000000000135,50.00000000000022,20.00000000000009,-0.0,-0.0
-0.0,-0.0,-0.0,-0.0,-0.0,-0.0,10.000000000000044,40.00000000000018,60.00000000000027,40.00000000000018,10.000000000000044,-0.0
10.000000000000044,-0.0,-10.000000000000044,-0.0,10.000000000000044,-0.0,10.000000000000044,40.00000000000018,70.00000000000031,40.00000000000018,20.00000000000009,-0.0
10.000000000000044,-0.0,-10.000000000000044,-10.000000000000044,10.000000000000044,-0.0,10.000000000000044,50.00000000000022,80.00000000000036,50.00000000000022,30.000000000000135,-0.0
20.00000000000009,-0.0,-20.00000000000009,-10.000000000000044,20.00000000000009,-0.0,10.000000000000044,60.00000000000027,80.00000000000036,50.00000000000022,30.000000000000135,10.000000000000044
20.00000000000009,-0.0,-20.00000000000009,-10.000000000000044,20.00000000000009,-0.0,-0.0,60.00000000000027,90.0000000000004,60.00000000000027,30.000000000000135,10.000000000000044
20.00000000000009,-0.0,-10.000000000000044,-20.00000000000009,10.000000000000044,-0.0,-0.0,60.00000000000027,90.0000000000004,60.00000000000027,40.00000000000018,10.000000000000044
20.00000000000009,10.000000000000044,-10.000000000000044,-10.000000000000044,10.000000000000044,-0.0,-0.0,60.00000000000027,90.0000000000004,60.00000000000027,40.00000000000018,10.000000000000044
20.00000000000009,10.000000000000044,-10.000000000000044,-10.000000000000044,10.000000000000044,-0.0,-0.0,70.00000000000031,100.00000000000044,70.00000000000031,40.00000000000018,10.000000000000044
20.00000000000009,-0.0,-10.000000000000044,-10.000000000000044,10.000000000000044,-0.0,-0.0,70.00000000000031,100.00000000000044,70.00000000000031,40.00000000000018,10.000000000000044
20.00000000000009,-0.0,-20.00000000000009,-10.000000000000044,20.00000000000009,-0.0,-0.0,70.00000000000031,100.00000000000044,80.00000000000036,50.00000000000022,10.000000000000044
20.00000000000009,-0.0,-20.00000000000009,-10.000000000000044,20.00000000000009,-10.000000000000044,-0.0,70.00000000000031,110.00000000000048,80.00000000000036,60.00000000000027,10.000000000000044
20.00000000000009,-0.0,-20.00000000000009,-10.000000000000044,20.00000000000009,-10.000000000000044,-0.0,70.00000000000031,110.00000000000048,90.0000000000004,60.00000000000027,20.00000000000009
20.00000000000009,-0.0,-20.00000000000009,-10.000000000000044,20.00000000000009,-10.000000000000044,-0.0,80.00000000000036,110.00000000000048,90.0000000000004,70.00000000000031,20.00000000000009
20.00000000000009,-0.0,-10.000000000000044,-10.000000000000044,10.000000000000044,-0.0,-0.0,70.00000000000031,120.00000000000054,90.0000000000004,70.00000000000031,20.00000000000009
10.000000000000044,-0.0,-10.000000000000044,-10.000000000000044,10.000000000000044,-0.0,-0.0,70.00000000000031,120.00000000000054,100.00000000000044,80.00000000000036,20.00000000000009
10.000000000000044,-0.0,-0.0,-10.000000000000044,10.000000000000044,-0.0,-10.000000000000044,70.00000000000031,120.00000000000054,100.00000000000044,80.00000000000036,20.00000000000009
10.000000000000044,-0.0,-0.0,-10.000000000000044,10.000000000000044,-0.0,-20.00000000000009,70.00000000000031,120.00000000000054,100.00000000000044,90.0000000000004,30.000000000000135
20.00000000000009,10.000000000000044,-0.0,-20.00000000000009,10.000000000000044,-0.0,-20.00000000000009,70.00000000000031,130.00000000000057,110.00000000000048,90.0000000000004,30.000000000000135
20.00000000000009,10.000000000000044,-0.0,-20.00000000000009,10.000000000000044,-0.0,-20.00000000000009,70.00000000000031,130.00000000000057,120.00000000000054,100.00000000000044,30.000000000000135
30.000000000000135,10.000000000000044,-10.000000000000044,-20.00000000000009,20.00000000000009,-0.0,-30.000000000000135,70.00000000000031,140.00000000000063,130.00000000000057,110.00000000000048,40.00000000000018
30.000000000000135,10.000000000000044,-10.000000000000044,-20.00000000000009,20.00000000000009,-0.0,-30.000000000000135,70.00000000000031,140.00000000000063,140.00000000000063,130.00000000000057,40.00000000000018
20.00000000000009,10.000000000000044,-10.000000000000044,-20.00000000000009,20.00000000000009,-0.0,-40.00000000000018,70.00000000000031,150.00000000000065,150.00000000000065,140.00000000000063,50.00000000000022
20.00000000000009,10.000000000000044,-10.000000000000044,-10.000000000000044,10.000000000000044,-0.0,-40.00000000000018,70.00000000000031,150.00000000000065,160.0000000000007,150.00000000000065,50.00000000000022
10.000000000000044,-0.0,-0.0,-10.000000000000044,10.000000000000044,-0.0,-50.00000000000022,70.00000000000031,160.0000000000007,170.00000000000077,150.00000000000065,50.00000000000022
10.000000000000044,-0.0,-0.0,-10.000000000000044,-0.0,-0.0,-50.00000000000022,70.00000000000031,160.0000000000007,170.00000000000077,160.0000000000007,50.00000000000022
10.000000000000044,-0.0,-0.0,-10.000000000000044,-0.0,-0.0,-50.00000000000022,70.00000000000031,160.0000000000007,170.00000000000077,160.0000000000007,50.00000000000022
10.000000000000044,-0.0,-0.0,-10.000000000000044,-0.0,-0.0,-50.00000000000022,70.00000000000031,160.0000000000007,160.0000000000007,160.0000000000007,40.00000000000018
10.000000000000044,10.000000000000044,-0.0,-10.000000000000044,-0.0,-0.0,-40.00000000000018,70.00000000000031,150.00000000000065,150.00000000000065,150.00000000000065,40.00000000000018
10.000000000000044,10.000000000000044,-0.0,-10.000000000000044,-0.0,10.000000000000044,-40.00000000000018,70.00000000000031,150.00000000000065,150.00000000000065,140.00000000000063,30.000000000000135
10.000000000000044,20.00000000000009,-0.0,-10.000000000000044,-0.0,10.000000000000044,-30.000000000000135,80.00000000000036,140.00000000000063,140.00000000000063,130.00000000000057,20.00000000000009
10.000000000000044,20.00000000000009,-0.0,-10.000000000000044,-0.0,10.000000000000044,-20.00000000000009,80.00000000000036,130.00000000000057,120.00000000000054,120.00000000000054,10.000000000000044
-0.0,20.00000000000009,10.000000000000044,-10.000000000000044,-0.0,10.000000000000044,-10.000000000000044,80.00000000000036,120.00000000000054,110.00000000000048,110.00000000000048,10.000000000000044
10.000000000000044,20.00000000000009,-0.0,-10.000000000000044,-0.0,10.000000000000044,-0.0,80.00000000000036,110.00000000000048,100.00000000000044,100.00000000000044,-0.0
10.000000000000044,20.00000000000009,-0.0,-10.000000000000044,-0.0,10.000000000000044,-0.0,70.00000000000031,100.00000000000044,90.0000000000004,90.0000000000004,-0.0
10.000000000000044,20.00000000000009,-0.0,-10.000000000000044,-0.0,10.000000000000044,-0.0,60.00000000000027,100.00000000000044,80.00000000000036,70.00000000000031,-0.0
10.000000000000044,20.00000000000009,-0.0,-10.000000000000044,-0.0,-0.0,-0.0,60.00000000000027,90.0000000000004,70.00000000000031,70.00000000000031,-0.0
10.000000000000044,10.000000000000044,-0.0,-10.000000000000044,-0.0,-0.0,-0.0,50.00000000000022,90.0000000000004,70.00000000000031,60.00000000000027,-10.000000000000044
10.000000000000044,10.000000000000044,-0.0,-10.000000000000044,-0.0,-0.0,-0.0,50.00000000000022,80.00000000000036,60.00000000000027,60.00000000000027,-10.000000000000044
10.000000000000044,10.000000000000044,-0.0,-10.000000000000044,-0.0,-0.0,-0.0,50.00000000000022,80.00000000000036,60.00000000000027,50.00000000000022,-10.000000000000044
10.000000000000044,10.000000000000044,-0.0,-10.000000000000044,-0.0,-0.0,-0.0,50.00000000000022,80.00000000000036,60.00000000000027,50.00000000000022,-10.000000000000044
10.000000000000044,10.000000000000044,-0.0,-10.000000000000044,-0.0,-0.0,10.000000000000044,60.00000000000027,80.00000000000036,50.00000000000022,50.00000000000022,-10.000000000000044
-0.0,10.000000000000044,-0.0,-10.000000000000044,-0.0,-0.0,10.000000000000044,60.00000000000027,80.00000000000036,50.00000000000022,40.00000000000018,-10.000000000000044
10.000000000000044,10.000000000000044,-0.0,-10.000000000000044,-0.0,-0.0,10.000000000000044,60.00000000000027,80.00000000000036,50.00000000000022,40.00000000000018,-10.000000000000044
-0.0,10.000000000000044,-0.0,-0.0,-0.0,-0.0,10.000000000000044,60.00000000000027,80.00000000000036,50.00000000000022,40.00000000000018,-10.000000000000044
-0.0,10.000000000000044,-0.0,-0.0,-0.0,-0.0,10.000000000000044,60.00000000000027,80.00000000000036,50.00000000000022,40.00000000000018,-10.000000000000044
-0.0,10.000000000000044,-0.0,-0.0,-0.0,-0.0,10.000000000000044,60.00000000000027,80.00000000000036,50.00000000000022,40.00000000000018,-0.0
-0.0,-0.0,-0.0,-0.0,-0.0,-0.0,10.000000000000044,60.00000000000027,80.00000000000036,50.00000000000022,40.00000000000018,-10.000000000000044
-0.0,-0.0,-0.0,-0.0,-0.0,-0.0,-0.0,60.00000000000027,80.00000000000036,50.00000000000022,40.00000000000018,-10.000000000000044
-0.0,-0.0,-0.0,-0.0,-0.0,-0.0,-0.0,60.00000000000027,80.00000000000036,50.00000000000022,40.00000000000018,-10.000000000000044
10.000000000000044,-0.0,-0.0,-0.0,-0.0,-0.0,-0.0,60.00000000000027,80.00000000000036,50.00000000000022,40.00000000000018,-0.0
10.000000000000044,-0.0,-10.000000000000044,-0.0,-0.0,-0.0,10.000000000000044,60.00000000000027,80.00000000000036,50.00000000000022,40.00000000000018,-0.0
-0.0,-0.0,-0.0,-0.0,-0.0,-0.0,10.000000000000044,60.00000000000027,80.00000000000036,50.00000000000022,40.00000000000018,-0.0
-0.0,-0.0,-0.0,-0.0,-0.0,-0.0,10.000000000000044,60.00000000000027,80.00000000000036,50.00000000000022,40.00000000000018,-0.0
-10.000000000000044,-0.0,-0.0,-0.0,-0.0,-0.0,10.000000000000044,70.00000000000031,80.00000000000036,50.00000000000022,40.00000000000018,-0.0
-10.000000000000044,-0.0,-0.0,-0.0,-0.0,-0.0,10.000000000000044,70.00000000000031,80.00000000000036,50.00000000000022,40.00000000000018,-0.0
-10.000000000000044,-0.0,-0.0,-0.0,-0.0,-0.0,10.000000000000044,70.00000000000031,80.00000000000036,50.00000000000022,40.00000000000018,-0.0
-0.0,-0.0,-0.0,-0.0,-0.0,-0.0,10.000000000000044,60.00000000000027,70.00000000000031,40.00000000000018,30.000000000000135,-0.0
-0.0,-0.0,-0.0,-0.0,-0.0,-0.0,-0.0,60.00000000000027,70.00000000000031,40.00000000000018,30.000000000000135,-0.0
-0.0,-0.0,-0.0,-0.0,-0.0,-0.0,-0.0,60.00000000000027,70.00000000000031,40.00000000000018,30.000000000000135,-0.0
-0.0,-0.0,-0.0,-0.0,-0.0,-0.0,-0.0,50.00000000000022,70.00000000000031,40.00000000000018,30.000000000000135,-0.0
-0.0,-0.0,-0.0,-0.0,-0.0,-0.0,-0.0,50.00000000000022,60.00000000000027,40.00000000000018,30.000000000000135,-0.0
-0.0,-0.0,-0.0,-0.0,-0.0,-0.0,-0.0,50.00000000000022,60.00000000000027,30.000000000000135,20.00000000000009,-0.0
-0.0,-0.0,-0.0,-0.0,-0.0,-0.0,-0.0,50.00000000000022,50.00000000000022,30.000000000000135,20.00000000000009,-0.0
-0.0,-0.0,-0.0,-0.0,-0.0,-0.0,-0.0,40.00000000000018,50.00000000000022,30.000000000000135,20.00000000000009,-0.0
-0.0,-0.0,-0.0,-0.0,-0.0,-0.0,-0.0,40.00000000000018,50.00000000000022,20.00000000000009,20.00000000000009,-0.0
-0.0,-0.0,-0.0,-0.0,-0.0,-0.0,-0.0,40.00000000000018,40.00000000000018,20.00000000000009,20.00000000000009,-0.0
-0.0,-0.0,-0.0,-0.0,-0.0,-0.0,-0.0,40.00000000000018,50.00000000000022,20.00000000000009,20.00000000000009,-0.0
-0.0,-0.0,-0.0,-0.0,-0.0,-0.0,-0.0,40.00000000000018,50.00000000000022,30.000000000000135,20.00000000000009,-0.0
-10.000000000000044,-0.0,-0.0,-0.0,-0.0,-0.0,-0.0,40.00000000000018,40.00000000000018,30.000000000000135,20.00000000000009,-0.0
-10.000000000000044,-0.0,-0.0,-0.0,-10.000000000000044,-0.0,10.000000000000044,40.00000000000018,40.00000000000018,20.00000000000009,20.00000000000009,-0.0
-10.000000000000044,-0.0,10.000000000000044,-0.0,-10.000000000000044,-0.0,10.000000000000044,30.000000000000135,30.000000000000135,20.00000000000009,20.00000000000009,-0.0
-10.000000000000044,-0.0,10.000000000000044,-0.0,-10.000000000000044,-0.0,10.000000000000044,30.000000000000135,30.000000000000135,10.000000000000044,10.000000000000044,-0.0
-10.000000000000044,-0.0,-0.0,-0.0,-10.000000000000044,-0.0,-0.0,20.00000000000009,20.00000000000009,-0.0,-0.0,-10.000000000000044
-0.0,-0.0,-0.0,-0.0,-0.0,-0.0,-0.0,20.00000000000009,20.00000000000009,-0.0,-0.0,-10.000000000000044
-0.0,-0.0,-0.0,-0.0,-0.0,-0.0,-0.0,10.000000000000044,20.00000000000009,-0.0,-0.0,-10.000000000000044
-0.0,-0.0,-0.0,-0.0,-0.0,-0.0,-0.0,10.000000000000044,20.00000000000009,-0.0,-0.0,-10.000000000000044
-0.0,-0.0,-0.0,-0.0,-0.0,-0.0,-0.0,10.000000000000044,20.00000000000009,-0.0,-0.0,-10.000000000000044
-0.0,-0.0,-0.0,-0.0,-0.0,-0.0,-0.0,10.000000000000044,20.00000000000009,-0.0,-0.0,-10.000000000000044
-0.0,-0.0,-0.0,-0.0,-0.0,-0.0,10.000000000000044,10.000000000000044,20.00000000000009,10.000000000000044,-0.0,-0.0
-0.0,-0.0,-0.0,-0.0,-0.0,-0.0,-0.0,10.000000000000044,10.000000000000044,-0.0,-0.0,-0.0
-0.0,-0.0,-0.0,-0.0,-0.0,-0.0,-0.0,10.000000000000044,10.000000000000044,-0.0,-0.0,-0.0
-0.0,-0.0,-0.0,-0.0,-0.0,-0.0,-0.0,10.000000000000044,10.000000000000044,-0.0,-0.0,-10.000000000000044
-0.0,-0.0,-10.000000000000044,-0.0,-0.0,-0.0,-0.0,10.000000000000044,10.000000000000044,-0.0,-0.0,-10.000000000000044
-0.0,-0.0,-10.000000000000044,-0.0,-0.0,-0.0,-0.0,10.000000000000044,10.000000000000044,-0.0,-0.0,-10.000000000000044
-0.0,-0.0,-10.000000000000044,-0.0,-0.0,-0.0,-0.0,-0.0,10.000000000000044,-0.0,-0.0,-0.0
-0.0,-0.0,-0.0,-0.0,-0.0,-0.0,-0.0,-0.0,10.000000000000044,-0.0,-0.0,-0.0
-10.000000000000044,-0.0,-0.0,-0.0,-0.0,-0.0,10.000000000000044,10.000000000000044,10.000000000000044,-0.0,-0.0,-0.0
-10.000000000000044,-0.0,10.000000000000044,-0.0,-10.000000000000044,-0.0,10.000000000000044,10.000000000000044,10.000000000000044,-0.0,-0.0,-0.0
-10.000000000000044,-0.0,10.000000000000044,10.000000000000044,-10.000000000000044,-0.0,10.000000000000044,10.000000000000044,10.000000000000044,-0.0,-0.0,-0.0
-10.000000000000044,-0.0,-0.0,10.000000000000044,-10.000000000000044,-0.0,10.000000000000044,10.000000000000044,10.000000000000044,-0.0,-0.0,-0.0
-10.000000000000044,-0.0,-0.0,-0.0,-10.000000000000044,-0.0,10.000000000000044,-0.0,10.000000000000044,-0.0,-0.0,-10.000000000000044
-10.000000000000044,-0.0,-0.0,-0.0,-0.0,-0.0,10.000000000000044,-0.0,-0.0,-0.0,-0.0,-10.000000000000044
-10.000000000000044,-0.0,-0.0,-0.0,-0.0,-0.0,10.000000000000044,-0.0,-0.0,-0.0,-0.0,-10.000000000000044
-10.000000000000044,-10.000000000000044,-0.0,10.000000000000044,-0.0,-0.0,10.000000000000044,-0.0,-0.0,-0.0,-0.0,-10.000000000000044
-0.0,-10.000000000000044,-0.0,10.000000000000044,-0.0,-10.000000000000044,-0.0,-0.0,-0.0,-0.0,-0.0,-10.000000000000044
-0.0,-10.000000000000044,-0.0,10.000000000000044,-0.0,-10.000000000000044,-0.0,-0.0,-0.0,-0.0,-0.0,-10.000000000000044
-0.0,-10.000000000000044,-0.0,10.000000000000044,-0.0,-10.000000000000044,-0.0,-0.0,-0.0,-0.0,-0.0,-0.0
-0.0,-10.000000000000044,-10.000000000000044,10.000000000000044,-0.0,-10.000000000000044,-0.0,-0.0,-0.0,-0.0,-0.0,-0.0
-0.0,-10.000000000000044,-0.0,-0.0,-0.0,-10.000000000000044,10.000000000000044,-0.0,-0.0,-0.0,-0.0,-0.0
-0.0,-10.000000000000044,-0.0,-0.0,-0.0,-0.0,10.000000000000044,-0.0,-0.0,-0.0,-0.0,-0.0
-0.0,-10.000000000000044,-0.0,-0.0,-0.0,-0.0,10.000000000000044,-0.0,-0.0,-0.0,-0.0,-0.0
-10.000000000000044,-10.000000000000044,-0.0,-0.0,-0.0,-0.0,10.000000000000044,-0.0,-0.0,-0.0,-0.0,-0.0
-10.000000000000044,-0.0,-0.0,10.000000000000044,-0.0,-0.0,10.000000000000044,-0.0,-0.0,-0.0,-0.0,-0.0
-10.000000000000044,-0.0,-0.0,10.000000000000044,-0.0,-0.0,10.000000000000044,-0.0,-0.0,-0.0,-0.0,-10.000000000000044
-20.00000000000009,-10.000000000000044,-0.0,10.000000000000044,-10.000000000000044,-0.0,-0.0,-0.0,-0.0,-0.0,-0.0,-10.000000000000044
-30.000000000000135,-10.000000000000044,-0.0,20.00000000000009,-20.00000000000009,-0.0,-0.0,-0.0,-0.0,-0.0,-0.0,-10.000000000000044
-30.000000000000135,-10.000000000000044,10.000000000000044,20.00000000000009,-20.00000000000009,-0.0,-0.0,-0.0,-0.0,-0.0,-0.0,-10.000000000000044
-30.000000000000135,-20.00000000000009,10.000000000000044,20.00000000000009,-20.00000000000009,-0.0,-0.0,-0.0,-0.0,-0.0,-0.0,-10.000000000000044
-30.000000000000135,-20.00000000000009,10.000000000000044,20.00000000000009,-20.00000000000009,-0.0,-0.0,-0.0,-0.0,-0.0,-0.0,-10.000000000000044
-20.00000000000009,-10.000000000000044,-0.0,10.000000000000044,-10.000000000000044,-0.0,-0.0,-0.0,-0.0,-0.0,-0.0,-0.0
-20.00000000000009,-10.000000000000044,-0.0,10.000000000000044,-10.000000000000044,-0.0,-0.0,-0.0,-0.0,-0.0,-0.0,-10.000000000000044
-10.000000000000044,-10.000000000000044,-0.0,-0.0,-0.0,-0.0,-0.0,-0.0,-0.0,-10.000000000000044,-0.0,-10.000000000000044
-0.0,-0.0,-0.0,-0.0,-0.0,-0.0,-0.0,-10.000000000000044,-10.000000000000044,-10.000000000000044,-0.0,-10.000000000000044
-0.0,-0.0,-0.0,-0.0,-0.0,-0.0,-0.0,-10.000000000000044,-10.000000000000044,-10.000000000000044,-0.0,-10.000000000000044
-10.000000000000044,-0.0,-0.0,-0.0,-0.0,-0.0,-0.0,-10.000000000000044,-10.000000000000044,-10.000000000000044,-10.000000000000044,-10.000000000000044
-10.000000000000044,-0.0,-0.0,-0.0,-0.0,-0.0,-0.0,-10.000000000000044,-0.0,-10.000000000000044,-10.000000000000044,-10.000000000000044
-10.000000000000044,-0.0,-0.0,10.000000000000044,-10.000000000000044,-0.0,-0.0,-10.000000000000044,-0.0,-0.0,-10.000000000000044,-10.000000000000044
-10.000000000000044,-0.0,-0.0,10.000000000000044,-10.000000000000044,-0.0,-0.0,-0.0,-0.0,-0.0,-0.0,-0.0
-10.000000000000044,-0.0,10.000000000000044,10.000000000000044,-10.000000000000044,-0.0,-0.0,-0.0,-0.0,-0.0,-0.0,-0.0
-10.000000000000044,-0.0,10.000000000000044,-0.0,-10.000000000000044,-0.0,-0.0,-0.0,-0.0,-0.0,-0.0,-0.0
-10.000000000000044,-0.0,20.00000000000009,-0.0,-20.00000000000009,10.000000000000044,-0.0,-0.0,-0.0,-0.0,-0.0,-0.0
-10.000000000000044,-0.0,30.000000000000135,-10.000000000000044,-20.00000000000009,20.00000000000009,-0.0,-0.0,-0.0,-10.000000000000044,-0.0,-0.0
-0.0,20.00000000000009,40.00000000000018,-10.000000000000044,-20.00000000000009,40.00000000000018,-0.0,-0.0,-0.0,-10.000000000000044,-0.0,-0.0
-0.0,40.00000000000018,50.00000000000022,-20.00000000000009,-20.00000000000009,50.00000000000022,-0.0,-0.0,-10.000000000000044,-10.000000000000044,-10.000000000000044,-0.0
-0.0,50.00000000000022,50.00000000000022,-30.000000000000135,-20.00000000000009,50.00000000000022,-0.0,-0.0,-10.000000000000044,-10.000000000000044,-10.000000000000044,-0.0
-0.0,60.00000000000027,50.00000000000022,-30.000000000000135,-20.00000000000009,50.00000000000022,-0.0,-0.0,-10.000000000000044,-10.000000000000044,-10.000000000000044,-0.0
10.000000000000044,60.00000000000027,40.00000000000018,-30.000000000000135,-10.000000000000044,50.00000000000022,-0.0,-0.0,-0.0,-10.000000000000044,-10.000000000000044,-0.0
20.00000000000009,60.00000000000027,30.000000000000135,-40.00000000000018,-0.0,40.00000000000018,-0.0,-0.0,-0.0,-0.0,-10.000000000000044,-0.0
20.00000000000009,50.00000000000022,30.000000000000135,-40.00000000000018,-0.0,40.00000000000018,-0.0,-0.0,-0.0,-0.0,-0.0,-0.0
30.000000000000135,50.00000000000022,20.00000000000009,-40.00000000000018,-0.0,40.00000000000018,-0.0,-0.0,-0.0,-0.0,-0.0,-0.0
30.000000000000135,60.00000000000027,20.00000000000009,-50.00000000000022,-0.0,40.00000000000018,-0.0,-0.0,-0.0,-0.0,-0.0,-0.0
40.00000000000018,60.00000000000027,10.000000000000044,-50.00000000000022,10.000000000000044,30.000000000000135,-0.0,-0.0,-0.0,-0.0,-0.0,-0.0
50.00000000000022,60.00000000000027,-0.0,-50.00000000000022,20.00000000000009,20.00000000000009,-0.0,-0.0,-0.0,-0.0,-0.0,-0.0
50.00000000000022,50.00000000000022,-0.0,-50.00000000000022,30.000000000000135,10.000000000000044,-0.0,-0.0,-0.0,-0.0,-0.0,-0.0
50.00000000000022,40.00000000000018,-20.00000000000009,-40.00000000000018,30.000000000000135,-0.0,-0.0,-0.0,-0.0,-10.000000000000044,-0.0,-0.0
50.00000000000022,20.00000000000009,-30.000000000000135,-30.000000000000135,40.00000000000018,-10.000000000000044,-0.0,-0.0,-10.000000000000044,-10.000000000000044,-10.000000000000044,-0.0
40.00000000000018,10.000000000000044,-40.00000000000018,-20.00000000000009,40.00000000000018,-10.000000000000044,-0.0,-0.0,-10.000000000000044,-10.000000000000044,-10.000000000000044,-0.0
40.00000000000018,-0.0,-40.00000000000018,-20.00000000000009,40.00000000000018,-20.00000000000009,-0.0,-0.0,-10.000000000000044,-10.000000000000044,-10.000000000000044,-0.0
30.000000000000135,-0.0,-40.00000000000018,-10.000000000000044,30.000000000000135,-20.00000000000009,-0.0,-0.0,-10.000000000000044,-10.000000000000044,-10.000000000000044,-0.0
10.000000000000044,-0.0,-30.000000000000135,-0.0,20.00000000000009,-20.00000000000009,-0.0,-0.0,-0.0,-10.000000000000044,-10.000000000000044,-0.0
-0.0,-0.0,-20.00000000000009,-0.0,10.000000000000044,-10.000000000000044,-0.0,-0.0,-0.0,-0.0,-10.000000000000044,-0.0
-0.0,-10.000000000000044,-20.00000000000009,-0.0,-0.0,-10.000000000000044,-0.0,-0.0,-0.0,-0.0,-0.0,-0.0
-0.0,-10.000000000000044,-10.000000000000044,10.000000000000044,-0.0,-20.00000000000009,-0.0,-0.0,-0.0,-0.0,-0.0,-0.0
-10.000000000000044,-20.00000000000009,-10.000000000000044,20.00000000000009,-0.0,-20.00000000000009,-0.0,-0.0,-0.0,-0.0,-0.0,-0.0
-20.00000000000009,-30.000000000000135,-10.000000000000044,20.00000000000009,-0.0,-20.00000000000009,-0.0,-0.0,-0.0,-0.0,-0.0,-0.0
-20.00000000000009,-30.000000000000135,-10.000000000000044,20.00000000000009,-0.0,-20.00000000000009,-0.0,-0.0,-0.0,-0.0,-0.0,-0.0
-20.00000000000009,-30.000000000000135,-10.000000000000044,20.00000000000009,-0.0,-20.00000000000009,-0.0,-0.0,-0.0,-0.0,-0.0,-0.0
-20.00000000000009,-30.000000000000135,-10.000000000000044,20.00000000000009,-0.0,-20.00000000000009,-0.0,-0.0,-0.0,-0.0,-0.0,-0.0
-20.00000000000009,-30.000000000000135,-0.0,20.00000000000009,-0.0,-10.000000000000044,-0.0,-0.0,-0.0,-0.0,-0.0,-0.0
-30.000000000000135,-30.000000000000135,-0.0,20.00000000000009,-20.00000000000009,-10.000000000000044,-0.0,-0.0,-0.0,-0.0,-0.0,-0.0
-40.00000000000018,-20.00000000000009,-0.0,30.000000000000135,-20.00000000000009,-0.0,-0.0,-0.0,-0.0,-0.0,-0.0,-0.0
-40.00000000000018,-30.000000000000135,-0.0,30.000000000000135,-20.00000000000009,-0.0,-0.0,-0.0,-0.0,-0.0,-0.0,-0.0
-10.000000000000044,-30.000000000000135,-0.0,10.000000000000044,-10.000000000000044,-0.0,-0.0,-0.0,-0.0,-0.0,-0.0,-0.0
30.000000000000135,-10.000000000000044,-0.0,-40.00000000000018,10.000000000000044,10.000000000000044,-0.0,-0.0,-0.0,-0.0,-0.0,-0.0
120.00000000000054,30.000000000000135,-0.0,-120.00000000000054,60.00000000000027,50.00000000000022,-0.0,-0.0,-0.0,-0.0,-0.0,-0.0
240.00000000000108,110.00000000000048,-10.000000000000044,-240.00000000000108,120.00000000000054,100.00000000000044,-0.0,-0.0,-0.0,-0.0,-0.0,-0.0
380.0000000000017,230.00000000000102,-20.00000000000009,-370.00000000000165,200.00000000000088,160.0000000000007,-0.0,-0.0,-0.0,-0.0,-0.0,-0.0
500.0000000000022,350.00000000000153,-50.00000000000022,-480.00000000000216,270.0000000000012,200.00000000000088,-0.0,-0.0,-0.0,-0.0,-0.0,-0.0
570.0000000000025,450.000000000002,-90.0000000000004,-530.0000000000024,320.0000000000014,190.00000000000085,-0.0,-0.0,-0.0,-0.0,-0.0,-0.0
560.0000000000025,480.00000000000216,-130.00000000000057,-500.0000000000022,340.00000000000153,140.00000000000063,-0.0,-0.0,-0.0,-0.0,-0.0,-0.0
470.0000000000021,430.00000000000193,-160.0000000000007,-400.00000000000176,310.00000000000136,70.00000000000031,-0.0,-0.0,-0.0,-0.0,-0.0,-0.0
330.0000000000015,320.0000000000014,-150.00000000000065,-260.00000000000114,230.00000000000102,10.000000000000044,-0.0,-0.0,-0.0,-0.0,-0.0,-0.0
170.00000000000077,180.0000000000008,-90.0000000000004,-120.00000000000054,120.00000000000054,-10.000000000000044,-0.0,-0.0,-0.0,-0.0,-0.0,-0.0
20.00000000000009,60.00000000000027,-20.00000000000009,-10.000000000000044,20.00000000000009,-10.000000000000044,-0.0,-0.0,-0.0,-0.0,-0.0,-0.0
-80.00000000000036,-0.0,60.00000000000027,40.00000000000018,-70.00000000000031,20.00000000000009,-0.0,-0.0,-0.0,-0.0,-0.0,-0.0
-130.00000000000057,-10.000000000000044,110.00000000000048,60.00000000000027,-120.00000000000054,50.00000000000022,-0.0,-0.0,-0.0,-0.0,-0.0,-0.0
-120.00000000000054,-0.0,130.00000000000057,40.00000000000018,-120.00000000000054,70.00000000000031,-0.0,-0.0,-0.0,-0.0,10.000000000000044,10.000000000000044
-90.0000000000004,10.000000000000044,100.00000000000044,20.00000000000009,-90.0000000000004,60.00000000000027,-0.0,-0.0,10.000000000000044,10.000000000000044,10.000000000000044,10.000000000000044
-50.00000000000022,20.00000000000009,60.00000000000027,20.00000000000009,-60.00000000000027,30.000000000000135,-0.0,10.000000000000044,10.000000000000044,10.000000000000044,10.000000000000044,10.000000000000044
-30.000000000000135,-0.0,20.00000000000009,10.000000000000044,-30.000000000000135,-0.0,-0.0,10.000000000000044,20.00000000000009,20.00000000000009,20.00000000000009,20.00000000000009
-20.00000000000009,-10.000000000000044,-0.0,20.00000000000009,-10.000000000000044,-10.000000000000044,-0.0,20.00000000000009,20.00000000000009,20.00000000000009,20.00000000000009,20.00000000000009
-30.000000000000135,-30.000000000000135,-0.0,30.000000000000135,-10.000000000000044,-20.00000000000009,10.000000000000044,20.00000000000009,20.00000000000009,20.00000000000009,20.00000000000009,20.00000000000009
-40.00000000000018,-30.000000000000135,-0.0,30.000000000000135,-10.000000000000044,-20.00000000000009,10.000000000000044,30.000000000000135,30.000000000000135,20.00000000000009,20.00000000000009,10.000000000000044
-40.00000000000018,-40.00000000000018,-0.0,40.00000000000018,-20.00000000000009,-10.000000000000044,10.000000000000044,30.000000000000135,30.000000000000135,30.000000000000135,20.00000000000009,10.000000000000044
-40.00000000000018,-40.00000000000018,-0.0,40.00000000000018,-20.00000000000009,-10.000000000000044,-0.0,30.000000000000135,30.000000000000135,30.000000000000135,30.000000000000135,20.00000000000009
-40.00000000000018,-40.00000000000018,-0.0,40.00000000000018,-20.00000000000009,-10.000000000000044,-0.0,30.000000000000135,30.000000000000135,40.00000000000018,30.000000000000135,20.00000000000009
-40.00000000000018,-40.00000000000018,-0.0,40.00000000000018,-20.00000000000009,-10.000000000000044,-10.000000000000044,20.00000000000009,40.00000000000018,40.00000000000018,30.000000000000135,20.00000000000009
-40.00000000000018,-40.00000000000018,-0.0,30.000000000000135,-10.000000000000044,-20.00000000000009,-20.00000000000009,20.00000000000009,30.000000000000135,50.00000000000022,40.00000000000018,20.00000000000009
-30.000000000000135,-40.00000000000018,-0.0,30.000000000000135,-10.000000000000044,-20.00000000000009,-30.000000000000135,10.000000000000044,30.000000000000135,50.00000000000022,40.00000000000018,20.00000000000009
-30.000000000000135,-40.00000000000018,-10.000000000000044,30.000000000000135,-0.0,-20.00000000000009,-40.00000000000018,-0.0,30.000000000000135,50.00000000000022,50.00000000000022,20.00000000000009
-20.00000000000009,-40.00000000000018,-10.000000000000044,30.000000000000135,-0.0,-20.00000000000009,-50.00000000000022,-0.0,20.00000000000009,40.00000000000018,50.00000000000022,20.00000000000009
-20.00000000000009,-30.000000000000135,-10.000000000000044,30.000000000000135,-0.0,-20.00000000000009,-50.00000000000022,-0.0,20.00000000000009,40.00000000000018,40.00000000000018,20.00000000000009
-20.00000000000009,-40.00000000000018,-10.000000000000044,30.000000000000135,-0.0,-20.00000000000009,-50.00000000000022,-0.0,10.000000000000044,40.00000000000018,40.00000000000018,20.00000000000009
-20.00000000000009,-40.00000000000018,-10.000000000000044,30.000000000000135,-0.0,-30.000000000000135,-40.00000000000018,-0.0,10.000000000000044,30.000000000000135,40.00000000000018,20.00000000000009
-20.00000000000009,-40.00000000000018,-10.000000000000044,30.000000000000135,-0.0,-20.00000000000009,-40.00000000000018,-0.0,-0.0,30.000000000000135,40.00000000000018,20.00000000000009
-30.000000000000135,-40.00000000000018,-10.000000000000044,30.000000000000135,-0.0,-20.00000000000009,-30.000000000000135,-10.000000000000044,-0.0,20.00000000000009,30.000000000000135,20.00000000000009
-30.000000000000135,-40.00000000000018,-10.000000000000044,30.000000000000135,-0.0,-20.00000000000009,-30.000000000000135,-10.000000000000044,-0.0,10.000000000000044,30.000000000000135,10.000000000000044
-30.000000000000135,-40.00000000000018,-0.0,30.000000000000135,-10.000000000000044,-20.00000000000009,-30.000000000000135,-10.000000000000044,-0.0,-0.0,20.00000000000009,-0.0
-20.00000000000009,-40.00000000000018,-0.0,30.000000000000135,-10.000000000000044,-20.00000000000009,-20.00000000000009,-20.00000000000009,-10.000000000000044,-0.0,10.000000000000044,-0.0
-20.00000000000009,-30.000000000000135,-0.0,20.00000000000009,-10.000000000000044,-10.000000000000044,-20.00000000000009,-20.00000000000009,-20.00000000000009,-0.0,-0.0,-0.0
-20.00000000000009,-30.000000000000135,-0.0,20.00000000000009,-10.000000000000044,-10.000000000000044,-20.00000000000009,-30.000000000000135,-30.000000000000135,-0.0,-0.0,-0.0
-20.00000000000009,-20.00000000000009,-0.0,10.000000000000044,-10.000000000000044,-0.0,-20.00000000000009,-30.000000000000135,-30.000000000000135,-0.0,-0.0,-0.0
-20.00000000000009,-10.000000000000044,-0.0,10.000000000000044,-10.000000000000044,-0.0,-20.00000000000009,-30.000000000000135,-30.000000000000135,-0.0,-0.0,-0.0
-10.000000000000044,-10.000000000000044,-0.0,10.000000000000044,-10.000000000000044,-0.0,-20.00000000000009,-40.00000000000018,-40.00000000000018,-0.0,-0.0,-0.0
-10.000000000000044,-10.000000000000044,-0.0,10.000000000000044,-0.0,-0.0,-30.000000000000135,-50.00000000000022,-40.00000000000018,-10.000000000000044,-0.0,-0.0
-10.000000000000044,-10.000000000000044,-0.0,10.000000000000044,-0.0,-0.0,-20.00000000000009,-60.00000000000027,-40.00000000000018,-10.000000000000044,-0.0,-0.0
-0.0,-10.000000000000044,-0.0,-0.0,-0.0,-0.0,-20.00000000000009,-50.00000000000022,-10.000000000000044,-10.000000000000044,-10.000000000000044,-10.000000000000044
-0.0,-0.0,-0.0,-0.0,-0.0,-0.0,-0.0,-20.00000000000009,40.00000000000018,20.00000000000009,-20.00000000000009,-10.000000000000044
-0.0,-0.0,-0.0,-0.0,-0.0,-0.0,10.000000000000044,40.00000000000018,140.00000000000063,100.00000000000044,-10.000000000000044,-10.000000000000044
-0.0,-0.0,-0.0,-0.0,-0.0,-0.0,30.000000000000135,110.00000000000048,270.0000000000012,250.0000000000011,50.00000000000022,10.000000000000044
-0.0,-0.0,-0.0,-0.0,-0.0,-0.0,10.000000000000044,160.0000000000007,410.0000000000018,470.0000000000021,170.00000000000077,70.00000000000031
-0.0,-0.0,-0.0,-0.0,-0.0,-0.0,-60.00000000000027,140.00000000000063,500.0000000000022,750.0000000000033,380.0000000000017,170.00000000000077
-0.0,-0.0,-0.0,-0.0,-0.0,-0.0,-190.00000000000085,30.000000000000135,520.0000000000023,1010.0000000000044,640.0000000000028,310.00000000000136
-0.0,-0.0,-0.0,-0.0,-0.0,-0.0,-380.0000000000017,-190.00000000000085,420.0000000000019,1190.0000000000052,910.0000000000041,450.000000000002
-0.0,-0.0,-0.0,-0.0,-0.0,-0.0,-580.0000000000026,-470.0000000000021,230.00000000000102,1230.0000000000055,1120.000000000005,550.0000000000024
-0.0,-0.0,-0.0,-0.0,-0.0,-0.0,-740.0000000000033,-770.0000000000034,-20.00000000000009,1080.0000000000048,1220.0000000000055,590.0000000000026
-0.0,-0.0,-0.0,-0.0,-0.0,-0.0,-810.0000000000036,-1010.0000000000044,-290.0000000000013,800.0000000000035,1130.000000000005,540.0000000000024
-0.0,-0.0,-0.0,-0.0,-0.0,-0.0,-770.0000000000034,-1160.0000000000052,-520.0000000000023,430.00000000000193,900.000000000004,410.0000000000018
-0.0,-0.0,-0.0,-10.000000000000044,-0.0,-0.0,-650.0000000000028,-1180.0000000000052,-670.000000000003,90.0000000000004,580.0000000000026,240.00000000000108
10.000000000000044,10.000000000000044,-0.0,-20.00000000000009,-0.0,10.000000000000044,-490.00000000000216,-1100.0000000000048,-720.0000000000032,-150.00000000000065,260.00000000000114,60.00000000000027
20.00000000000009,20.00000000000009,-0.0,-20.00000000000009,-0.0,10.000000000000044,-330.0000000000015,-970.0000000000043,-660.000000000003,-270.0000000000012,20.00000000000009,-80.00000000000036
20.00000000000009,20.00000000000009,-0.0,-20.00000000000009,-0.0,10.000000000000044,-210.00000000000094,-810.0000000000036,-550.0000000000024,-260.00000000000114,-120.00000000000054,-160.0000000000007
20.00000000000009,30.000000000000135,-0.0,-20.00000000000009,-0.0,20.00000000000009,-130.00000000000057,-650.0000000000028,-420.0000000000019,-200.00000000000088,-170.00000000000077,-190.00000000000085
10.000000000000044,30.000000000000135,-0.0,-20.00000000000009,-0.0,10.000000000000044,-100.00000000000044,-500.0000000000022,-290.0000000000013,-120.00000000000054,-130.00000000000057,-160.0000000000007
10.000000000000044,30.000000000000135,10.000000000000044,-20.00000000000009,-0.0,20.00000000000009,-80.00000000000036,-360.0000000000016,-190.00000000000085,-60.00000000000027,-80.00000000000036,-130.00000000000057
10.000000000000044,30.000000000000135,10.000000000000044,-20.00000000000009,-0.0,20.00000000000009,-60.00000000000027,-250.0000000000011,-120.00000000000054,-30.000000000000135,-40.00000000000018,-100.00000000000044
10.000000000000044,30.000000000000135,10.000000000000044,-20.00000000000009,-0.0,20.00000000000009,-40.00000000000018,-160.0000000000007,-90.0000000000004,-30.000000000000135,-20.00000000000009,-80.00000000000036
10.000000000000044,30.000000000000135,20.00000000000009,-20.00000000000009,-0.0,20.00000000000009,-20.00000000000009,-110.00000000000048,-80.00000000000036,-40.00000000000018,-20.00000000000009,-80.00000000000036
10.000000000000044,30.000000000000135,20.00000000000009,-30.000000000000135,-0.0,30.000000000000135,-0.0,-80.00000000000036,-70.00000000000031,-40.00000000000018,-30.000000000000135,-80.00000000000036
20.00000000000009,40.00000000000018,10.000000000000044,-30.000000000000135,-0.0,30.000000000000135,-0.0,-60.00000000000027,-70.00000000000031,-50.00000000000022,-40.00000000000018,-80.00000000000036
30.000000000000135,40.00000000000018,10.000000000000044,-40.00000000000018,-0.0,30.000000000000135,-0.0,-50.00000000000022,-70.00000000000031,-50.00000000000022,-40.00000000000018,-80.00000000000036
40.00000000000018,50.00000000000022,-0.0,-40.00000000000018,10.000000000000044,30.000000000000135,10.000000000000044,-30.000000000000135,-60.00000000000027,-40.00000000000018,-40.00000000000018,-70.00000000000031
40.00000000000018,50.00000000000022,-0.0,-50.00000000000022,20.00000000000009,20.00000000000009,10.000000000000044,-20.00000000000009,-60.00000000000027,-40.00000000000018,-40.00000000000018,-60.00000000000027
50.00000000000022,50.00000000000022,-0.0,-50.00000000000022,20.00000000000009,20.00000000000009,10.000000000000044,-10.000000000000044,-50.00000000000022,-50.00000000000022,-40.00000000000018,-60.00000000000027
60.00000000000027,50.00000000000022,-0.0,-60.00000000000027,30.000000000000135,20.00000000000009,20.00000000000009,-10.000000000000044,-50.00000000000022,-50.00000000000022,-40.00000000000018,-50.00000000000022
70.00000000000031,50.00000000000022,-0.0,-60.00000000000027,30.000000000000135,20.00000000000009,20.00000000000009,-0.0,-40.00000000000018,-50.00000000000022,-40.00000000000018,-50.00000000000022
70.00000000000031,60.00000000000027,-10.000000000000044,-70.00000000000031,40.00000000000018,20.00000000000009,20.00000000000009,-0.0,-40.00000000000018,-50.00000000000022,-40.00000000000018,-50.00000000000022
80.00000000000036,60.00000000000027,-10.000000000000044,-80.00000000000036,50.00000000000022,20.00000000000009,20.00000000000009,-0.0,-40.00000000000018,-50.00000000000022,-40.00000000000018,-40.00000000000018
90.0000000000004,70.00000000000031,-10.000000000000044,-80.00000000000036,50.00000000000022,20.00000000000009,20.00000000000009,-0.0,-40.00000000000018,-50.00000000000022,-40.00000000000018,-40.00000000000018
90.0000000000004,70.00000000000031,-10.000000000000044,-80.00000000000036,50.00000000000022,30.000000000000135,20.00000000000009,-0.0,-30.000000000000135,-50.00000000000022,-30.000000000000135,-30.000000000000135
90.0000000000004,80.00000000000036,-10.000000000000044,-90.0000000000004,50.00000000000022,30.000000000000135,30.000000000000135,-0.0,-30.000000000000135,-50.00000000000022,-30.000000000000135,-30.000000000000135
90.0000000000004,80.00000000000036,-10.000000000000044,-90.0000000000004,50.00000000000022,30.000000000000135,30.000000000000135,-0.0,-30.000000000000135,-50.00000000000022,-30.000000000000135,-20.00000000000009
90.0000000000004,80.00000000000036,-0.0,-90.0000000000004,40.00000000000018,30.000000000000135,30.000000000000135,10.000000000000044,-20.00000000000009,-50.00000000000022,-40.00000000000018,-20.00000000000009
80.00000000000036,80.00000000000036,-0.0,-80.00000000000036,40.00000000000018,40.00000000000018,30.000000000000135,-0.0,-20.00000000000009,-50.00000000000022,-40.00000000000018,-20.00000000000009
70.00000000000031,80.00000000000036,-0.0,-80.00000000000036,30.000000000000135,40.00000000000018,30.000000000000135,-0.0,-30.000000000000135,-50.00000000000022,-40.00000000000018,-20.00000000000009
70.00000000000031,80.00000000000036,-0.0,-70.00000000000031,30.000000000000135,40.00000000000018,30.000000000000135,-0.0,-30.000000000000135,-50.00000000000022,-40.00000000000018,-20.00000000000009
50.00000000000022,70.00000000000031,-0.0,-60.00000000000027,20.00000000000009,30.000000000000135,30.000000000000135,-0.0,-20.00000000000009,-50.00000000000022,-40.00000000000018,-10.000000000000044
40.00000000000018,70.00000000000031,10.000000000000044,-50.00000000000022,10.000000000000044,30.000000000000135,30.000000000000135,-0.0,-20.00000000000009,-50.00000000000022,-40.00000000000018,-10.000000000000044
30.000000000000135,60.00000000000027,-0.0,-40.00000000000018,10.000000000000044,20.00000000000009,30.000000000000135,10.000000000000044,-10.000000000000044,-40.00000000000018,-40.00000000000018,-10.000000000000044
30.000000000000135,40.00000000000018,-0.0,-30.000000000000135,10.000000000000044,20.00000000000009,30.000000000000135,10.000000000000044,-10.000000000000044,-40.00000000000018,-30.000000000000135,-10.000000000000044
30.000000000000135,30.000000000000135,-0.0,-30.000000000000135,10.000000000000044,10.000000000000044,30.000000000000135,10.000000000000044,-0.0,-30.000000000000135,-30.000000000000135,-10.000000000000044
30.000000000000135,20.00000000000009,-10.000000000000044,-20.00000000000009,10.000000000000044,-0.0,30.000000000000135,20.00000000000009,-0.0,-30.000000000000135,-30.000000000000135,-0.0
30.000000000000135,20.00000000000009,-10.000000000000044,-20.00000000000009,20.00000000000009,-0.0,30.000000000000135,20.00000000000009,-0.0,-20.00000000000009,-20.00000000000009,-0.0
30.000000000000135,10.000000000000044,-20.00000000000009,-20.00000000000009,20.00000000000009,-0.0,30.000000000000135,20.00000000000009,-0.0,-20.00000000000009,-20.00000000000009,-0.0
20.00000000000009,-0.0,-20.00000000000009,-10.000000000000044,20.00000000000009,-0.0,20.00000000000009,20.00000000000009,-0.0,-10.000000000000044,-10.000000000000044,-0.0
10.000000000000044,-0.0,-10.000000000000044,-10.000000000000044,10.000000000000044,-0.0,20.00000000000009,30.000000000000135,-0.0,-0.0,-10.000000000000044,-0.0
-0.0,-0.0,-10.000000000000044,-0.0,-0.0,-0.0,20.00000000000009,30.000000000000135,10.000000000000044,-0.0,-0.0,-0.0
-0.0,-0.0,-0.0,-0.0,-0.0,-0.0,20.00000000000009,30.000000000000135,10.000000000000044,-0.0,-0.0,-0.0
-0.0,-0.0,-0.0,-0.0,-0.0,-0.0,20.00000000000009,40.00000000000018,20.00000000000009,-0.0,-0.0,-0.0
-10.000000000000044,-0.0,10.000000000000044,-0.0,-10.000000000000044,-0.0,20.00000000000009,40.00000000000018,20.00000000000009,10.000000000000044,-0.0,-0.0
-20.00000000000009,-0.0,20.00000000000009,10.000000000000044,-20.00000000000009,-0.0,20.00000000000009,40.00000000000018,30.000000000000135,10.000000000000044,-0.0,-0.0
-30.000000000000135,-0.0,20.00000000000009,10.000000000000044,-20.00000000000009,10.000000000000044,20.00000000000009,40.00000000000018,30.000000000000135,20.00000000000009,-0.0,-0.0
-30.000000000000135,-0.0,20.00000000000009,10.000000000000044,-20.00000000000009,10.000000000000044,10.000000000000044,50.00000000000022,40.00000000000018,30.000000000000135,-0.0,-0.0
-30.000000000000135,-0.0,30.000000000000135,10.000000000000044,-30.000000000000135,10.000000000000044,10.000000000000044,50.00000000000022,50.00000000000022,30.000000000000135,10.000000000000044,10.000000000000044
-30.000000000000135,-0.0,30.000000000000135,10.000000000000044,-30.000000000000135,10.000000000000044,10.000000000000044,50.00000000000022,50.00000000000022,40.00000000000018,20.00000000000009,10.000000000000044
-20.00000000000009,-0.0,20.00000000000009,10.000000000000044,-20.00000000000009,10.000000000000044,10.000000000000044,60.00000000000027,60.00000000000027,40.00000000000018,20.00000000000009,10.000000000000044
-20.00000000000009,-0.0,30.000000000000135,10.000000000000044,-20.00000000000009,10.000000000000044,10.000000000000044,60.00000000000027,60.00000000000027,40.00000000000018,20.00000000000009,10.000000000000044
-20.00000000000009,-0.0,20.00000000000009,10.000000000000044,-20.00000000000009,-0.0,-0.0,60.00000000000027,60.00000000000027,40.00000000000018,30.000000000000135,10.000000000000044
-20.00000000000009,-0.0,10.000000000000044,10.000000000000044,-10.000000000000044,-0.0,-0.0,60.00000000000027,70.00000000000031,50.00000000000022,30.000000000000135,10.000000000000044
-10.000000000000044,-0.0,10.000000000000044,-0.0,-10.000000000000044,-0.0,-0.0,60.00000000000027,70.00000000000031,50.00000000000022,30.000000000000135,10.000000000000044
-10.000000000000044,-0.0,-0.0,-0.0,-10.000000000000044,-0.0,-0.0,60.00000000000027,80.00000000000036,60.00000000000027,40.00000000000018,10.000000000000044
-0.0,-0.0,-0.0,-0.0,-0.0,-0.0,-0.0,60.00000000000027,80.00000000000036,60.00000000000027,40.00000000000018,10.000000000000044
-10.000000000000044,-0.0,-0.0,-0.0,-10.000000000000044,-0.0,-0.0,70.00000000000031,80.00000000000036,70.00000000000031,50.00000000000022,20.00000000000009
-10.000000000000044,-0.0,10.000000000000044,-0.0,-10.000000000000044,-0.0,-0.0,70.00000000000031,80.00000000000036,70.00000000000031,50.00000000000022,20.00000000000009
-20.00000000000009,-0.0,20.00000000000009,10.000000000000044,-20.00000000000009,-0.0,-0.0,70.00000000000031,80.00000000000036,70.00000000000031,60.00000000000027,20.00000000000009
-30.000000000000135,-0.0,20.00000000000009,10.000000000000044,-20.00000000000009,-0.0,-10.000000000000044,60.00000000000027,70.00000000000031,70.00000000000031,60.00000000000027,20.00000000000009
-30.000000000000135,-0.0,20.00000000000009,10.000000000000044,-30.000000000000135,10.000000000000044,-10.000000000000044,60.00000000000027,70.00000000000031,70.00000000000031,60.00000000000027,20.00000000000009
-30.000000000000135,-0.0,20.00000000000009,10.000000000000044,-20.00000000000009,-0.0,-20.00000000000009,60.00000000000027,70.00000000000031,80.00000000000036,60.00000000000027,30.000000000000135
-20.00000000000009,-0.0,20.00000000000009,10.000000000000044,-20.00000000000009,-0.0,-20.00000000000009,50.00000000000022,70.00000000000031,80.00000000000036,70.00000000000031,30.000000000000135
-20.00000000000009,-0.0,20.00000000000009,-0.0,-20.00000000000009,-0.0,-30.000000000000135,50.00000000000022,70.00000000000031,90.0000000000004,70.00000000000031,30.000000000000135
-10.000000000000044,-0.0,20.00000000000009,-0.0,-20.00000000000009,10.000000000000044,-30.000000000000135,40.00000000000018,80.00000000000036,100.00000000000044,80.00000000000036,40.00000000000018
-10.000000000000044,-0.0,20.00000000000009,-0.0,-10.000000000000044,10.000000000000044,-30.000000000000135,40.00000000000018,80.00000000000036,100.00000000000044,90.0000000000004,40.00000000000018
-20.00000000000009,-0.0,20.00000000000009,-0.0,-20.00000000000009,10.000000000000044,-40.00000000000018,40.00000000000018,80.00000000000036,110.00000000000048,90.0000000000004,50.00000000000022
-20.00000000000009,-0.0,20.00000000000009,-0.0,-20.00000000000009,10.000000000000044,-40.00000000000018,30.000000000000135,80.00000000000036,110.00000000000048,100.00000000000044,50.00000000000022
-20.00000000000009,-0.0,20.00000000000009,10.000000000000044,-20.00000000000009,-0.0,-50.00000000000022,30.000000000000135,80.00000000000036,120.00000000000054,100.00000000000044,50.00000000000022
-20.00000000000009,-0.0,20.00000000000009,10.000000000000044,-20.00000000000009,-0.0,-60.00000000000027,30.000000000000135,90.0000000000004,130.00000000000057,110.00000000000048,60.00000000000027
-30.000000000000135,-0.0,20.00000000000009,10.000000000000044,-20.00000000000009,-0.0,-60.00000000000027,30.000000000000135,90.0000000000004,140.00000000000063,120.00000000000054,60.00000000000027
-30.000000000000135,-0.0,20.00000000000009,20.00000000000009,-20.00000000000009,-0.0,-60.00000000000027,30.000000000000135,90.0000000000004,150.00000000000065,130.00000000000057,60.00000000000027
-30.000000000000135,-10.000000000000044,20.00000000000009,20.00000000000009,-30.000000000000135,-0.0,-60.00000000000027,30.000000000000135,100.00000000000044,150.00000000000065,130.00000000000057,60.00000000000027
-30.000000000000135,-0.0,20.00000000000009,20.00000000000009,-30.000000000000135,-0.0,-60.00000000000027,40.00000000000018,100.00000000000044,150.00000000000065,130.00000000000057,60.00000000000027
-30.000000000000135,-0.0,20.00000000000009,10.000000000000044,-30.000000000000135,-0.0,-60.00000000000027,40.00000000000018,100.00000000000044,150.00000000000065,130.00000000000057,50.00000000000022
-20.00000000000009,-0.0,20.00000000000009,10.000000000000044,-20.00000000000009,-0.0,-50.00000000000022,40.00000000000018,100.00000000000044,140.00000000000063,130.00000000000057,50.00000000000022
-20.00000000000009,-0.0,10.000000000000044,10.000000000000044,-20.00000000000009,-0.0,-40.00000000000018,40.00000000000018,90.0000000000004,130.00000000000057,120.00000000000054,40.00000000000018
-20.00000000000009,-0.0,10.000000000000044,10.000000000000044,-10.000000000000044,-0.0,-30.000000000000135,40.00000000000018,80.00000000000036,120.00000000000054,100.00000000000044,30.000000000000135
-20.00000000000009,-0.0,-0.0,10.000000000000044,-10.000000000000044,-0.0,-20.00000000000009,40.00000000000018,80.00000000000036,100.00000000000044,90.0000000000004,20.00000000000009
-20.00000000000009,-10.000000000000044,-0.0,10.000000000000044,-10.000000000000044,-0.0,-20.00000000000009,30.000000000000135,70.00000000000031,90.0000000000004,80.00000000000036,10.000000000000044
-30.000000000000135,-10.000000000000044,10.000000000000044,20.00000000000009,-20.00000000000009,-0.0,-10.000000000000044,30.000000000000135,60.00000000000027,80.00000000000036,60.00000000000027,-0.0
-30.000000000000135,-10.000000000000044,10.000000000000044,20.00000000000009,-20.00000000000009,-0.0,-10.000000000000044,30.000000000000135,60.00000000000027,80.00000000000036,50.00000000000022,-0.0
-40.00000000000018,-10.000000000000044,20.00000000000009,20.00000000000009,-30.000000000000135,-0.0,-0.0,30.000000000000135,50.00000000000022,70.00000000000031,50.00000000000022,-0.0
-40.00000000000018,-10.000000000000044,20.00000000000009,20.00000000000009,-30.000000000000135,-0.0,-0.0,30.000000000000135,50.00000000000022,70.00000000000031,40.00000000000018,-0.0
-40.00000000000018,-10.000000000000044,20.00000000000009,20.00000000000009,-30.000000000000135,-0.0,-0.0,30.000000000000135,50.00000000000022,60.00000000000027,40.00000000000018,-0.0
-30.000000000000135,-10.000000000000044,10.000000000000044,20.00000000000009,-20.00000000000009,-0.0,10.000000000000044,30.000000000000135,40.00000000000018,60.00000000000027,30.000000000000135,-0.0
-20.00000000000009,-10.000000000000044,10.000000000000044,10.000000000000044,-20.00000000000009,-0.0,10.000000000000044,20.00000000000009,40.00000000000018,50.00000000000022,30.000000000000135,-0.0
-20.00000000000009,-10.000000000000044,-0.0,10.000000000000044,-10.000000000000044,-0.0,10.000000000000044,20.00000000000009,30.000000000000135,50.00000000000022,20.00000000000009,-0.0
-10.000000000000044,-10.000000000000044,-0.0,10.000000000000044,-10.000000000000044,-0.0,10.000000000000044,20.00000000000009,30.000000000000135,40.00000000000018,20.00000000000009,-10.000000000000044
-20.00000000000009,-10.000000000000044,-0.0,10.000000000000044,-10.000000000000044,-0.0,-0.0,20.00000000000009,30.000000000000135,40.00000000000018,20.00000000000009,-10.000000000000044
-20.00000000000009,-10.000000000000044,-0.0,20.00000000000009,-10.000000000000044,-0.0,-0.0,20.00000000000009,30.000000000000135,40.00000000000018,20.00000000000009,-0.0
-30.000000000000135,-10.000000000000044,-0.0,20.00000000000009,-20.00000000000009,-0.0,-0.0,20.00000000000009,30.000000000000135,40.00000000000018,20.00000000000009,-0.0
-30.000000000000135,-20.00000000000009,10.000000000000044,20.00000000000009,-20.00000000000009,-0.0,10.000000000000044,20.00000000000009,30.000000000000135,40.00000000000018,20.00000000000009,-0.0
-30.000000000000135,-20.00000000000009,10.000000000000044,20.00000000000009,-20.00000000000009,-0.0,10.000000000000044,20.00000000000009,30.000000000000135,40.00000000000018,20.00000000000009,-0.0
-20.00000000000009,-10.000000000000044,-0.0,20.00000000000009,-10.000000000000044,-0.0,10.000000000000044,20.00000000000009,30.000000000000135,30.000000000000135,20.00000000000009,-0.0
-20.00000000000009,-10.000000000000044,-0.0,10.000000000000044,-10.000000000000044,-0.0,10.000000000000044,20.00000000000009,30.000000000000135,30.000000000000135,20.00000000000009,-0.0
-10.000000000000044,-10.000000000000044,-0.0,10.000000000000044,-0.0,-0.0,10.000000000000044,30.000000000000135,30.000000000000135,40.00000000000018,20.00000000000009,-0.0
-10.000000000000044,-10.000000000000044,-0.0,10.000000000000044,-0.0,-0.0,10.000000000000044,30.000000000000135,40.00000000000018,40.00000000000018,20.00000000000009,-0.0
-10.000000000000044,-10.000000000000044,-0.0,10.000000000000044,-0.0,-0.0,10.000000000000044,30.000000000000135,50.00000000000022,40.00000000000018,20.00000000000009,-0.0
-10.000000000000044,-10.000000000000044,-0.0,10.000000000000044,-0.0,-0.0,10.000000000000044,40.00000000000018,50.00000000000022,40.00000000000018,30.000000000000135,-0.0
-20.00000000000009,-10.000000000000044,-0.0,10.000000000000044,-10.000000000000044,-0.0,10.000000000000044,40.00000000000018,60.00000000000027,50.00000000000022,30.000000000000135,-0.0
-20.00000000000009,-10.000000000000044,-0.0,10.000000000000044,-10.000000000000044,-0.0,10.000000000000044,50.00000000000022,60.00000000000027,50.00000000000022,30.000000000000135,-0.0
-20.00000000000009,-10.000000000000044,-0.0,10.000000000000044,-10.000000000000044,-0.0,10.000000000000044,50.00000000000022,60.00000000000027,50.00000000000022,30.000000000000135,-0.0
-20.00000000000009,-10.000000000000044,10.000000000000044,10.000000000000044,-10.000000000000044,-0.0,10.000000000000044,50.00000000000022,60.00000000000027,40.00000000000018,30.000000000000135,-0.0
-20.00000000000009,-10.000000000000044,10.000000000000044,10.000000000000044,-10.000000000000044,-0.0,10.000000000000044,50.00000000000022,50.00000000000022,40.00000000000018,30.000000000000135,-0.0
-20.00000000000009,-10.000000000000044,10.000000000000044,10.000000000000044,-20.00000000000009,-0.0,10.000000000000044,40.00000000000018,50.00000000000022,30.000000000000135,30.000000000000135,-0.0
-20.00000000000009,-0.0,-0.0,10.000000000000044,-10.000000000000044,-0.0,10.000000000000044,40.00000000000018,50.00000000000022,30.000000000000135,30.000000000000135,-0.0
-10.000000000000044,-0.0,-0.0,-0.0,-0.0,-0.0,-0.0,40.00000000000018,40.00000000000018,20.00000000000009,20.00000000000009,-0.0
-0.0,-0.0,-0.0,-0.0,-0.0,-0.0,-0.0,40.00000000000018,40.00000000000018,20.00000000000009,20.00000000000009,-0.0
-0.0,-0.0,-0.0,-0.0,-0.0,-0.0,-0.0,30.000000000000135,40.00000000000018,20.00000000000009,10.000000000000044,-0.0
10.000000000000044,-0.0,-0.0,-0.0,-0.0,-0.0,-0.0,30.000000000000135,50.00000000000022,30.000000000000135,10.000000000000044,-0.0
-0.0,-0.0,-0.0,-0.0,-0.0,-0.0,-0.0,40.00000000000018,50.00000000000022,30.000000000000135,20.00000000000009,-0.0
-0.0,-0.0,-0.0,-0.0,-0.0,-0.0,10.000000000000044,40.00000000000018,50.00000000000022,30.000000000000135,20.00000000000009,-0.0
-0.0,-0.0,-0.0,-0.0,-0.0,-0.0,10.000000000000044,40.00000000000018,50.00000000000022,30.000000000000135,20.00000000000009,-0.0
-0.0,-0.0,10.000000000000044,-0.0,-0.0,-0.0,10.000000000000044,40.00000000000018,50.00000000000022,30.000000000000135,20.00000000000009,-0.0
-0.0,-0.0,-0.0,-0.0,-0.0,-0.0,20.00000000000009,40.00000000000018,40.00000000000018,30.000000000000135,20.00000000000009,-0.0
-0.0,-0.0,-0.0,-10.000000000000044,-0.0,-0.0,10.000000000000044,30.000000000000135,40.00000000000018,20.00000000000009,20.00000000000009,-0.0
10.000000000000044,10.000000000000044,-0.0,-10.000000000000044,-0.0,-0.0,10.000000000000044,30.000000000000135,30.000000000000135,20.00000000000009,10.000000000000044,-0.0
10.000000000000044,10.000000000000044,-0.0,-10.000000000000044,-0.0,-0.0,10.000000000000044,20.00000000000009,20.00000000000009,10.000000000000044,10.000000000000044,-0.0
10.000000000000044,10.000000000000044,-0.0,-10.000000000000044,-0.0,-0.0,10.000000000000044,20.00000000000009,20.00000000000009,10.000000000000044,-0.0,-0.0
10.000000000000044,10.000000000000044,-0.0,-10.000000000000044,-0.0,-0.0,10.000000000000044,20.00000000000009,20.00000000000009,10.000000000000044,-0.0,-0.0
-0.0,10.000000000000044,-0.0,-10.000000000000044,-0.0,10.000000000000044,10.000000000000044,20.00000000000009,20.00000000000009,10.000000000000044,-0.0,-0.0
-0.0,10.000000000000044,-0.0,-10.000000000000044,-0.0,10.000000000000044,10.000000000000044,20.00000000000009,20.00000000000009,10.000000000000044,-0.0,-0.0
-0.0,10.000000000000044,10.000000000000044,-0.0,-0.0,10.000000000000044,10.000000000000044,20.00000000000009,20.00000000000009,10.000000000000044,-0.0,-0.0
-0.0,10.000000000000044,10.000000000000044,-0.0,-0.0,10.000000000000044,10.000000000000044,20.00000000000009,20.00000000000009,10.000000000000044,-0.0,-0.0
-0.0,10.000000000000044,10.000000000000044,-0.0,-0.0,-0.0,10.000000000000044,20.00000000000009,20.00000000000009,10.000000000000044,10.000000000000044,-0.0
-0.0,-0.0,10.000000000000044,-0.0,-0.0,-0.0,10.000000000000044,20.00000000000009,20.00000000000009,10.000000000000044,10.000000000000044,-0.0
-0.0,-0.0,-0.0,-0.0,-0.0,-0.0,10.000000000000044,20.00000000000009,20.00000000000009,10.000000000000044,10.000000000000044,-0.0
-0.0,-0.0,-0.0,-0.0,-0.0,-0.0,10.000000000000044,10.000000000000044,10.000000000000044,-0.0,10.000000000000044,-0.0
-0.0,-0.0,-0.0,-0.0,-0.0,-0.0,10.000000000000044,10.000000000000044,10.000000000000044,-0.0,10.000000000000044,-0.0
-0.0,-0.0,-0.0,-0.0,-0.0,-0.0,10.000000000000044,10.000000000000044,-0.0,-0.0,-0.0,-0.0
-0.0,-0.0,-0.0,-0.0,-0.0,-0.0,-0.0,-0.0,-0.0,-0.0,-0.0,-0.0
-0.0,-0.0,-0.0,-0.0,-0.0,-0.0,-0.0,-0.0,-0.0,-0.0,-0.0,-0.0
-0.0,-0.0,-0.0,-0.0,-0.0,-0.0,-0.0,-0.0,-0.0,-0.0,-0.0,-0.0
-0.0,-0.0,-0.0,-0.0,-0.0,-0.0,-0.0,-0.0,-0.0,-0.0,-0.0,-0.0
-0.0,-0.0,-0.0,-0.0,-0.0,-0.0,10.000000000000044,-0.0,-0.0,-0.0,-0.0,-0.0
-0.0,-0.0,-0.0,-0.0,-0.0,-0.0,10.000000000000044,-0.0,-0.0,-0.0,-0.0,-0.0
-0.0,-0.0,-0.0,-0.0,-0.0,-0.0,10.000000000000044,-0.0,-0.0,-0.0,-0.0,-0.0
-0.0,-0.0,-0.0,-0.0,-0.0,-0.0,10.000000000000044,-0.0,-0.0,-0.0,-0.0,-0.0
-0.0,-0.0,-0.0,-0.0,-0.0,-0.0,10.000000000000044,-0.0,-0.0,-0.0,-0.0,-0.0
-0.0,-0.0,-0.0,-0.0,-0.0,-0.0,-0.0,-0.0,-0.0,-0.0,-0.0,-0.0
-0.0,-10.000000000000044,-0.0,-0.0,-0.0,-0.0,-0.0,-0.0,-0.0,-0.0,-0.0,-0.0
-0.0,-10.000000000000044,-0.0,-0.0,-0.0,-0.0,-0.0,-0.0,-0.0,-10.000000000000044,-0.0,-0.0
-0.0,-0.0,-0.0,-0.0,-0.0,-0.0,-0.0,-0.0,-0.0,-10.000000000000044,-0.0,-0.0
-0.0,-0.0,-0.0,-0.0,-0.0,-0.0,-0.0,-0.0,-0.0,-10.000000000000044,-0.0,-0.0
-10.000000000000044,-0.0,-0.0,-0.0,-10.000000000000044,-0.0,-0.0,-0.0,-0.0,-10.000000000000044,-0.0,-0.0
-10.000000000000044,-0.0,10.000000000000044,-0.0,-10.000000000000044,-0.0,-0.0,-0.0,-0.0,-20.00000000000009,-0.0,-0.0
-10.000000000000044,-0.0,-0.0,-0.0,-10.000000000000044,-0.0,-0.0,-0.0,-10.000000000000044,-20.00000000000009,-0.0,-0.0
-0.0,-0.0,-0.0,-0.0,-0.0,-0.0,-0.0,-10.000000000000044,-10.000000000000044,-20.00000000000009,-10.000000000000044,-0.0
-0.0,-0.0,-0.0,-0.0,-0.0,-0.0,-0.0,-10.000000000000044,-20.00000000000009,-20.00000000000009,-10.000000000000044,-0.0
-0.0,-0.0,-0.0,-0.0,-0.0,-0.0,-0.0,-10.000000000000044,-20.00000000000009,-20.00000000000009,-10.000000000000044,-0.0
-0.0,-0.0,-0.0,-0.0,-0.0,-0.0,-0.0,-10.000000000000044,-10.000000000000044,-20.00000000000009,-10.000000000000044,-0.0
-0.0,-0.0,-0.0,-0.0,-0.0,-0.0,-0.0,-10.000000000000044,-10.000000000000044,-20.00000000000009,-0.0,-0.0
-0.0,-0.0,-0.0,-0.0,-0.0,-0.0,-0.0,-0.0,-10.000000000000044,-20.00000000000009,-0.0,-0.0
-0.0,-0.0,-0.0,-0.0,-0.0,-0.0,-0.0,-0.0,-10.000000000000044,-20.00000000000009,-0.0,-0.0
-0.0,-0.0,-0.0,-0.0,-0.0,-0.0,-0.0,-0.0,-10.000000000000044,-20.00000000000009,-0.0,-0.0
-0.0,-0.0,-0.0,-0.0,-0.0,-0.0,-0.0,-0.0,-10.000000000000044,-20.00000000000009,-0.0,-0.0
-0.0,-0.0,-0.0,-0.0,-0.0,-0.0,-0.0,-10.000000000000044,-10.000000000000044,-20.00000000000009,-0.0,-0.0
-0.0,-0.0,-0.0,-0.0,-0.0,-0.0,-0.0,-10.000000000000044,-10.000000000000044,-20.00000000000009,-0.0,-0.0
-0.0,10.000000000000044,-0.0,-10.000000000000044,-0.0,10.000000000000044,-0.0,-10.000000000000044,-10.000000000000044,-20.00000000000009,-0.0,-0.0
-0.0,10.000000000000044,10.000000000000044,-10.000000000000044,-0.0,10.000000000000044,-0.0,-0.0,-10.000000000000044,-20.00000000000009,-0.0,-0.0
-0.0,10.000000000000044,10.000000000000044,-10.000000000000044,-0.0,10.000000000000044,-0.0,-0.0,-10.000000000000044,-20.00000000000009,-0.0,-0.0
-0.0,20.00000000000009,10.000000000000044,-10.000000000000044,-0.0,10.000000000000044,-0.0,-0.0,-10.000000000000044,-20.00000000000009,-0.0,-0.0
-0.0,10.000000000000044,10.000000000000044,-10.000000000000044,-0.0,10.000000000000044,-0.0,-10.000000000000044,-10.000000000000044,-20.00000000000009,-10.000000000000044,-0.0
-0.0,10.000000000000044,-0.0,-0.0,-0.0,10.000000000000044,-0.0,-10.000000000000044,-10.000000000000044,-20.00000000000009,-10.000000000000044,-0.0
-0.0,10.000000000000044,-0.0,-0.0,-0.0,-0.0,-0.0,-10.000000000000044,-10.000000000000044,-20.00000000000009,-10.000000000000044,-0.0
-0.0,-0.0,-0.0,-0.0,-0.0,-0.0,-0.0,-10.000000000000044,-10.000000000000044,-20.00000000000009,-10.000000000000044,-0.0
-0.0,-0.0,10.000000000000044,-0.0,-0.0,-0.0,-0.0,-0.0,-10.000000000000044,-20.00000000000009,-0.0,-0.0
-0.0,-0.0,-0.0,-0.0,-0.0,-0.0,-0.0,-0.0,-10.000000000000044,-20.00000000000009,-0.0,-0.0
-0.0,-0.0,10.000000000000044,-0.0,-0.0,10.000000000000044,-0.0,-0.0,-10.000000000000044,-20.00000000000009,-0.0,-0.0
-0.0,10.000000000000044,10.000000000000044,-20.00000000000009,-0.0,10.000000000000044,-0.0,-0.0,-10.000000000000044,-20.00000000000009,-0.0,-0.0
10.000000000000044,20.00000000000009,20.00000000000009,-30.000000000000135,-0.0,30.000000000000135,-0.0,-0.0,-20.00000000000009,-20.00000000000009,-10.000000000000044,-0.0
20.00000000000009,40.00000000000018,30.000000000000135,-40.00000000000018,-0.0,40.00000000000018,-0.0,-10.000000000000044,-10.000000000000044,-20.00000000000009,-10.000000000000044,-0.0
20.00000000000009,60.00000000000027,40.00000000000018,-50.00000000000022,-10.000000000000044,60.00000000000027,-0.0,-0.0,-10.000000000000044,-20.00000000000009,-0.0,-0.0
20.00000000000009,70.00000000000031,60.00000000000027,-50.00000000000022,-10.000000000000044,70.00000000000031,-0.0,-0.0,-10.000000000000044,-20.00000000000009,-10.000000000000044,-0.0
10.000000000000044,80.00000000000036,60.00000000000027,-50.00000000000022,-20.00000000000009,70.00000000000031,-0.0,-0.0,-10.000000000000044,-20.00000000000009,-10.000000000000044,-0.0
10.000000000000044,80.00000000000036,60.00000000000027,-40.00000000000018,-20.00000000000009,70.00000000000031,-0.0,-0.0,-10.000000000000044,-20.00000000000009,-10.000000000000044,-0.0
10.000000000000044,80.00000000000036,50.00000000000022,-40.00000000000018,-10.000000000000044,60.00000000000027,-0.0,-0.0,-10.000000000000044,-20.00000000000009,-10.000000000000044,-0.0
20.00000000000009,70.00000000000031,40.00000000000018,-50.00000000000022,-10.000000000000044,50.00000000000022,-0.0,-0.0,-10.000000000000044,-20.00000000000009,-10.000000000000044,-0.0
30.000000000000135,70.00000000000031,20.00000000000009,-50.00000000000022,-0.0,50.00000000000022,-0.0,-0.0,-10.000000000000044,-20.00000000000009,-10.000000000000044,-0.0
50.00000000000022,70.00000000000031,10.000000000000044,-60.00000000000027,10.000000000000044,40.00000000000018,-0.0,-0.0,-10.000000000000044,-20.00000000000009,-10.000000000000044,-0.0
60.00000000000027,70.00000000000031,-0.0,-60.00000000000027,20.00000000000009,30.000000000000135,-0.0,-0.0,-10.000000000000044,-20.00000000000009,-10.000000000000044,-0.0
70.00000000000031,70.00000000000031,-0.0,-60.00000000000027,30.000000000000135,20.00000000000009,-0.0,-0.0,-10.000000000000044,-20.00000000000009,-0.0,-0.0
60.00000000000027,60.00000000000027,-10.000000000000044,-60.00000000000027,30.000000000000135,10.000000000000044,-0.0,-0.0,-10.000000000000044,-20.00000000000009,-0.0,-0.0
60.00000000000027,50.00000000000022,-10.000000000000044,-50.00000000000022,30.000000000000135,-0.0,-0.0,-0.0,-10.000000000000044,-10.000000000000044,-0.0,-0.0
50.00000000000022,40.00000000000018,-20.00000000000009,-40.00000000000018,30.000000000000135,-0.0,-0.0,-0.0,-10.000000000000044,-10.000000000000044,-10.000000000000044,-0.0
40.00000000000018,20.00000000000009,-20.00000000000009,-30.000000000000135,30.000000000000135,-0.0,-0.0,-0.0,-10.000000000000044,-10.000000000000044,-10.000000000000044,-0.0
40.00000000000018,20.00000000000009,-20.00000000000009,-30.000000000000135,30.000000000000135,-0.0,-0.0,-0.0,-10.000000000000044,-10.000000000000044,-10.000000000000044,-0.0
30.000000000000135,10.000000000000044,-20.00000000000009,-20.00000000000009,30.000000000000135,-0.0,-0.0,-0.0,-10.000000000000044,-10.000000000000044,-10.000000000000044,-0.0
30.000000000000135,-0.0,-20.00000000000009,-10.000000000000044,20.00000000000009,-10.000000000000044,-0.0,-0.0,-0.0,-10.000000000000044,-10.000000000000044,-0.0
20.00000000000009,-0.0,-20.00000000000009,-10.000000000000044,20.00000000000009,-10.000000000000044,-0.0,-0.0,-0.0,-0.0,-10.000000000000044,-0.0
-0.0,-0.0,-20.00000000000009,-0.0,10.000000000000044,-10.000000000000044,-0.0,-0.0,-0.0,-0.0,-0.0,-0.0
-0.0,-10.000000000000044,-10.000000000000044,-0.0,-0.0,-10.000000000000044,-0.0,-0.0,-0.0,-0.0,-0.0,-0.0
-10.000000000000044,-20.00000000000009,-10.000000000000044,10.000000000000044,-0.0,-10.000000000000044,-0.0,-0.0,-0.0,-0.0,-0.0,-0.0
-20.00000000000009,-20.00000000000009,-0.0,20.00000000000009,-0.0,-20.00000000000009,-0.0,-0.0,-0.0,-0.0,-0.0,-0.0
-20.00000000000009,-30.000000000000135,-0.0,20.00000000000009,-0.0,-10.000000000000044,-0.0,-0.0,-0.0,-0.0,-0.0,-0.0
-20.00000000000009,-30.000000000000135,-0.0,20.00000000000009,-10.000000000000044,-10.000000000000044,-0.0,-0.0,-10.000000000000044,-0.0,-0.0,-0.0
-20.00000000000009,-20.00000000000009,-0.0,10.000000000000044,-10.000000000000044,-0.0,-0.0,-0.0,-10.000000000000044,-0.0,-0.0,-0.0
-20.00000000000009,-20.00000000000009,-0.0,10.000000000000044,-10.000000000000044,-0.0,-0.0,-0.0,-10.000000000000044,-0.0,-0.0,-0.0
-20.00000000000009,-10.000000000000044,10.000000000000044,10.000000000000044,-10.000000000000044,-0.0,-0.0,-0.0,-10.000000000000044,-0.0,-0.0,-0.0
-20.00000000000009,-0.0,10.000000000000044,10.000000000000044,-20.00000000000009,-0.0,-0.0,-0.0,-0.0,-0.0,-0.0,-0.0
-20.00000000000009,-0.0,10.000000000000044,10.000000000000044,-20.00000000000009,-0.0,-0.0,-0.0,-0.0,-0.0,-0.0,-0.0
-0.0,-0.0,10.000000000000044,-10.000000000000044,-10.000000000000044,-0.0,-0.0,-0.0,-0.0,-0.0,-0.0,-0.0
40.00000000000018,10.000000000000044,10.000000000000044,-50.00000000000022,10.000000000000044,30.000000000000135,-0.0,-0.0,-0.0,-0.0,-0.0,-0.0
130.00000000000057,60.00000000000027,10.000000000000044,-140.00000000000063,50.00000000000022,80.00000000000036,-0.0,-0.0,-0.0,-0.0,-0.0,-0.0
240.00000000000108,150.00000000000065,20.00000000000009,-260.00000000000114,110.00000000000048,140.00000000000063,-0.0,-0.0,-0.0,-0.0,-0.0,-0.0
370.00000000000165,270.0000000000012,-0.0,-380.0000000000017,180.0000000000008,200.00000000000088,-0.0,-0.0,-0.0,-0.0,-0.0,-0.0
490.00000000000216,390.0000000000017,-20.00000000000009,-490.00000000000216,250.0000000000011,230.00000000000102,-0.0,-0.0,-0.0,10.000000000000044,-0.0,-0.0
560.0000000000025,480.00000000000216,-60.00000000000027,-540.0000000000024,310.00000000000136,210.00000000000094,-0.0,-0.0,-0.0,20.00000000000009,10.000000000000044,-0.0
560.0000000000025,510.0000000000023,-110.00000000000048,-510.0000000000023,340.00000000000153,160.0000000000007,-0.0,10.000000000000044,10.000000000000044,30.000000000000135,10.000000000000044,-0.0
470.0000000000021,450.000000000002,-140.00000000000063,-410.0000000000018,300.0000000000013,90.0000000000004,10.000000000000044,20.00000000000009,20.00000000000009,30.000000000000135,20.00000000000009,10.000000000000044
330.0000000000015,340.00000000000153,-130.00000000000057,-280.00000000000125,230.00000000000102,30.000000000000135,10.000000000000044,20.00000000000009,20.00000000000009,40.00000000000018,30.000000000000135,10.000000000000044
170.00000000000077,200.00000000000088,-80.00000000000036,-140.00000000000063,120.00000000000054,-0.0,-0.0,20.00000000000009,20.00000000000009,40.00000000000018,30.000000000000135,10.000000000000044
30.000000000000135,90.0000000000004,-10.000000000000044,-30.000000000000135,20.00000000000009,-0.0,-0.0,20.00000000000009,20.00000000000009,40.00000000000018,30.000000000000135,10.000000000000044
-70.00000000000031,20.00000000000009,70.00000000000031,30.000000000000135,-70.00000000000031,30.000000000000135,-20.00000000000009,10.000000000000044,10.000000000000044,50.00000000000022,40.00000000000018,10.000000000000044
-120.00000000000054,-0.0,120.00000000000054,50.00000000000022,-120.00000000000054,60.00000000000027,-40.00000000000018,-0.0,10.000000000000044,50.00000000000022,40.00000000000018,20.00000000000009
-120.00000000000054,-0.0,140.00000000000063,40.00000000000018,-130.00000000000057,80.00000000000036,-50.00000000000022,-0.0,10.000000000000044,50.00000000000022,40.00000000000018,20.00000000000009
-90.0000000000004,20.00000000000009,110.00000000000048,20.00000000000009,-100.00000000000044,60.00000000000027,-60.00000000000027,-0.0,10.000000000000044,60.00000000000027,50.00000000000022,20.00000000000009
-60.00000000000027,20.00000000000009,60.00000000000027,20.00000000000009,-60.00000000000027,30.000000000000135,-60.00000000000027,-0.0,10.000000000000044,60.00000000000027,50.00000000000022,20.00000000000009
-40.00000000000018,-0.0,30.000000000000135,20.00000000000009,-30.000000000000135,-0.0,-50.00000000000022,-0.0,10.000000000000044,60.00000000000027,50.00000000000022,20.00000000000009
-20.00000000000009,-10.000000000000044,-0.0,20.00000000000009,-10.000000000000044,-0.0,-50.00000000000022,-0.0,10.000000000000044,60.00000000000027,50.00000000000022,20.00000000000009
-30.000000000000135,-20.00000000000009,-0.0,20.00000000000009,-20.00000000000009,-0.0,-40.00000000000018,-0.0,10.000000000000044,50.00000000000022,50.00000000000022,10.000000000000044
-40.00000000000018,-20.00000000000009,10.000000000000044,30.000000000000135,-30.000000000000135,-0.0,-40.00000000000018,-0.0,-0.0,40.00000000000018,50.00000000000022,10.000000000000044
-50.00000000000022,-20.00000000000009,20.00000000000009,30.000000000000135,-40.00000000000018,-0.0,-30.000000000000135,-0.0,-0.0,30.000000000000135,40.00000000000018,10.000000000000044
-50.00000000000022,-20.00000000000009,30.000000000000135,30.000000000000135,-40.00000000000018,-0.0,-30.000000000000135,-10.000000000000044,-0.0,20.00000000000009,30.000000000000135,-0.0
-50.00000000000022,-20.00000000000009,30.000000000000135,30.000000000000135,-40.00000000000018,-0.0,-30.000000000000135,-10.000000000000044,-10.000000000000044,10.000000000000044,20.00000000000009,-0.0
-50.00000000000022,-20.00000000000009,20.00000000000009,30.000000000000135,-40.00000000000018,-0.0,-30.000000000000135,-20.00000000000009,-20.00000000000009,-0.0,10.000000000000044,-0.0
-40.00000000000018,-20.00000000000009,10.000000000000044,30.000000000000135,-30.000000000000135,-0.0,-20.00000000000009,-30.000000000000135,-40.00000000000018,-0.0,-0.0,-0.0
-40.00000000000018,-20.00000000000009,10.000000000000044,30.000000000000135,-20.00000000000009,-0.0,-20.00000000000009,-30.000000000000135,-40.00000000000018,-10.000000000000044,-0.0,-0.0
-30.000000000000135,-20.00000000000009,-0.0,30.000000000000135,-20.00000000000009,-0.0,-20.00000000000009,-40.00000000000018,-50.00000000000022,-20.00000000000009,-10.000000000000044,-0.0
-30.000000000000135,-20.00000000000009,-0.0,30.000000000000135,-20.00000000000009,-0.0,-20.00000000000009,-40.00000000000018,-50.00000000000022,-20.00000000000009,-10.000000000000044,-0.0
-30.000000000000135,-20.00000000000009,-0.0,30.000000000000135,-20.00000000000009,-10.000000000000044,-20.00000000000009,-40.00000000000018,-60.00000000000027,-30.000000000000135,-10.000000000000044,-0.0
-30.000000000000135,-30.000000000000135,10.000000000000044,30.000000000000135,-20.00000000000009,-0.0,-20.00000000000009,-50.00000000000022,-60.00000000000027,-20.00000000000009,-10.000000000000044,-0.0
-40.00000000000018,-20.00000000000009,10.000000000000044,30.000000000000135,-20.00000000000009,-0.0,-20.00000000000009,-50.00000000000022,-60.00000000000027,-20.00000000000009,-10.000000000000044,-0.0
-30.000000000000135,-20.00000000000009,10.000000000000044,20.00000000000009,-20.00000000000009,-0.0,-20.00000000000009,-60.00000000000027,-70.00000000000031,-20.00000000000009,-10.000000000000044,-0.0
-40.00000000000018,-20.00000000000009,10.000000000000044,20.00000000000009,-20.00000000000009,-0.0,-20.00000000000009,-60.00000000000027,-70.00000000000031,-30.000000000000135,-10.000000000000044,-0.0
-40.00000000000018,-20.00000000000009,10.000000000000044,20.00000000000009,-30.000000000000135,-0.0,-20.00000000000009,-60.00000000000027,-50.00000000000022,-30.000000000000135,-20.00000000000009,-0.0
-40.00000000000018,-20.00000000000009,10.000000000000044,30.000000000000135,-30.000000000000135,-0.0,-0.0,-40.00000000000018,-0.0,-10.000000000000044,-30.000000000000135,-0.0
-40.00000000000018,-20.00000000000009,20.00000000000009,30.000000000000135,-30.000000000000135,-0.0,10.000000000000044,10.000000000000044,70.00000000000031,40.00000000000018,-20.00000000000009,-0.0
-40.00000000000018,-20.00000000000009,20.00000000000009,30.000000000000135,-30.000000000000135,-0.0,30.000000000000135,70.00000000000031,190.00000000000085,170.00000000000077,20.00000000000009,10.000000000000044
-40.00000000000018,-20.00000000000009,20.00000000000009,30.000000000000135,-30.000000000000135,-0.0,30.000000000000135,120.00000000000054,310.00000000000136,370.00000000000165,110.00000000000048,50.00000000000022
-40.00000000000018,-20.00000000000009,20.00000000000009,20.00000000000009,-30.000000000000135,-0.0,-30.000000000000135,100.00000000000044,410.0000000000018,620.0000000000027,280.00000000000125,130.00000000000057
-30.000000000000135,-10.000000000000044,10.000000000000044,20.00000000000009,-20.00000000000009,-0.0,-160.0000000000007,-0.0,460.00000000000205,900.000000000004,530.0000000000024,250.0000000000011
-30.000000000000135,-10.000000000000044,10.000000000000044,10.000000000000044,-20.00000000000009,-0.0,-340.00000000000153,-210.00000000000094,410.0000000000018,1130.000000000005,800.0000000000035,380.0000000000017
-20.00000000000009,-10.000000000000044,10.000000000000044,10.000000000000044,-20.00000000000009,-0.0,-560.0000000000025,-510.0000000000023,270.0000000000012,1250.0000000000055,1040.0000000000045,510.0000000000023
-20.00000000000009,-0.0,10.000000000000044,10.000000000000044,-10.000000000000044,-0.0,-740.0000000000033,-820.0000000000036,60.00000000000027,1180.0000000000052,1190.0000000000052,580.0000000000026
-10.000000000000044,-0.0,-0.0,10.000000000000044,-10.000000000000044,-0.0,-850.0000000000038,-1090.0000000000048,-200.00000000000088,950.0000000000042,1190.0000000000052,560.0000000000025
-10.000000000000044,-0.0,10.000000000000044,10.000000000000044,-10.000000000000044,-0.0,-860.0000000000039,-1260.0000000000057,-440.00000000000193,620.0000000000027,1020.0000000000045,460.00000000000205
-10.000000000000044,-0.0,10.000000000000044,10.000000000000044,-10.000000000000044,-0.0,-760.0000000000034,-1300.0000000000057,-620.0000000000027,260.00000000000114,740.0000000000033,300.0000000000013
-20.00000000000009,-0.0,10.000000000000044,10.000000000000044,-10.000000000000044,-0.0,-600.0000000000026,-1220.0000000000055,-710.0000000000032,-40.00000000000018,420.0000000000019,120.00000000000054
-10.000000000000044,-0.0,10.000000000000044,-0.0,-10.000000000000044,-0.0,-430.00000000000193,-1090.0000000000048,-700.0000000000031,-210.00000000000094,130.00000000000057,-30.000000000000135
-10.000000000000044,-0.0,10.000000000000044,-0.0,-10.000000000000044,-0.0,-290.0000000000013,-910.0000000000041,-600.0000000000026,-270.0000000000012,-60.00000000000027,-130.00000000000057
-10.000000000000044,-0.0,10.000000000000044,-0.0,-10.000000000000044,-0.0,-180.0000000000008,-730.0000000000033,-470.0000000000021,-220.00000000000097,-150.00000000000065,-180.0000000000008
-10.000000000000044,-0.0,-0.0,-0.0,-10.000000000000044,-0.0,-110.00000000000048,-560.0000000000025,-330.0000000000015,-140.00000000000063,-140.00000000000063,-170.00000000000077
-0.0,-0.0,-0.0,-0.0,-0.0,-0.0,-80.00000000000036,-410.0000000000018,-210.00000000000094,-70.00000000000031,-90.0000000000004,-140.00000000000063
-0.0,-0.0,-0.0,-0.0,-0.0,-0.0,-50.00000000000022,-280.00000000000125,-140.00000000000063,-30.000000000000135,-50.00000000000022,-110.00000000000048
-0.0,-0.0,-0.0,-0.0,-0.0,-0.0,-20.00000000000009,-180.0000000000008,-100.00000000000044,-20.00000000000009,-20.00000000000009,-90.0000000000004
-0.0,-0.0,-0.0,-0.0,-0.0,-0.0,-0.0,-110.00000000000048,-80.00000000000036,-40.00000000000018,-20.00000000000009,-70.00000000000031
-0.0,-0.0,10.000000000000044,-0.0,-10.000000000000044,-0.0,-0.0,-80.00000000000036,-70.00000000000031,-50.00000000000022,-30.000000000000135,-70.00000000000031
-0.0,-0.0,10.000000000000044,-0.0,-0.0,-0.0,20.00000000000009,-60.00000000000027,-70.00000000000031,-50.00000000000022,-40.00000000000018,-70.00000000000031
-0.0,-0.0,10.000000000000044,-0.0,-0.0,10.000000000000044,20.00000000000009,-50.00000000000022,-70.00000000000031,-50.00000000000022,-50.00000000000022,-70.00000000000031
-0.0,10.000000000000044,-0.0,-10.000000000000044,-0.0,10.000000000000044,30.000000000000135,-40.00000000000018,-70.00000000000031,-50.00000000000022,-50.00000000000022,-70.00000000000031
-0.0,10.000000000000044,-0.0,-10.000000000000044,-0.0,10.000000000000044,30.000000000000135,-30.000000000000135,-60.00000000000027,-50.00000000000022,-50.00000000000022,-60.00000000000027
10.000000000000044,10.000000000000044,-0.0,-20.00000000000009,-0.0,10.000000000000044,40.00000000000018,-20.00000000000009,-50.00000000000022,-50.00000000000022,-50.00000000000022,-60.00000000000027
20.00000000000009,20.00000000000009,-0.0,-20.00000000000009,-0.0,10.000000000000044,40.00000000000018,-10.000000000000044,-50.00000000000022,-50.00000000000022,-50.00000000000022,-50.00000000000022
20.00000000000009,20.00000000000009,-0.0,-20.00000000000009,10.000000000000044,-0.0,50.00000000000022,-0.0,-50.00000000000022,-40.00000000000018,-50.00000000000022,-50.00000000000022
30.000000000000135,20.00000000000009,-0.0,-20.00000000000009,10.000000000000044,-0.0,50.00000000000022,-0.0,-50.00000000000022,-40.00000000000018,-50.00000000000022,-40.00000000000018
20.00000000000009,20.00000000000009,-0.0,-20.00000000000009,10.000000000000044,10.000000000000044,50.00000000000022,-0.0,-40.00000000000018,-50.00000000000022,-50.00000000000022,-40.00000000000018
20.00000000000009,20.00000000000009,-0.0,-20.00000000000009,-0.0,10.000000000000044,50.00000000000022,-0.0,-40.00000000000018,-50.00000000000022,-50.00000000000022,-40.00000000000018
20.00000000000009,20.00000000000009,-0.0,-30.000000000000135,-0.0,20.00000000000009,50.00000000000022,-0.0,-40.00000000000018,-50.00000000000022,-50.00000000000022,-30.000000000000135
20.00000000000009,30.000000000000135,10.000000000000044,-30.000000000000135,-0.0,20.00000000000009,50.00000000000022,-0.0,-40.00000000000018,-50.00000000000022,-50.00000000000022,-30.000000000000135
20.00000000000009,40.00000000000018,10.000000000000044,-30.000000000000135,-0.0,20.00000000000009,50.00000000000022,-0.0,-30.000000000000135,-50.00000000000022,-40.00000000000018,-30.000000000000135
30.000000000000135,40.00000000000018,10.000000000000044,-40.00000000000018,-0.0,20.00000000000009,50.00000000000022,-0.0,-30.000000000000135,-50.00000000000022,-40.00000000000018,-30.000000000000135
40.00000000000018,40.00000000000018,-0.0,-50.00000000000022,10.000000000000044,20.00000000000009,40.00000000000018,-0.0,-30.000000000000135,-40.00000000000018,-40.00000000000018,-20.00000000000009
40.00000000000018,50.00000000000022,-0.0,-50.00000000000022,10.000000000000044,30.000000000000135,40.00000000000018,-0.0,-30.000000000000135,-40.00000000000018,-40.00000000000018,-20.00000000000009
50.00000000000022,50.00000000000022,10.000000000000044,-60.00000000000027,10.000000000000044,40.00000000000018,50.00000000000022,-0.0,-20.00000000000009,-40.00000000000018,-40.00000000000018,-20.00000000000009
50.00000000000022,60.00000000000027,10.000000000000044,-70.00000000000031,10.000000000000044,40.00000000000018,50.00000000000022,-0.0,-20.00000000000009,-40.00000000000018,-40.00000000000018,-10.000000000000044
60.00000000000027,70.00000000000031,20.00000000000009,-70.00000000000031,20.00000000000009,50.00000000000022,50.00000000000022,10.000000000000044,-10.000000000000044,-30.000000000000135,-40.00000000000018,-10.000000000000044
70.00000000000031,80.00000000000036,20.00000000000009,-80.00000000000036,20.00000000000009,50.00000000000022,40.00000000000018,10.000000000000044,-10.000000000000044,-30.000000000000135,-30.000000000000135,-10.000000000000044
70.00000000000031,90.0000000000004,20.00000000000009,-90.0000000000004,20.00000000000009,60.00000000000027,40.00000000000018,10.000000000000044,-10.000000000000044,-30.000000000000135,-30.000000000000135,-10.000000000000044
80.00000000000036,100.00000000000044,20.00000000000009,-90.0000000000004,20.00000000000009,60.00000000000027,40.00000000000018,10.000000000000044,-0.0,-20.00000000000009,-30.000000000000135,-10.000000000000044
80.00000000000036,100.00000000000044,20.00000000000009,-90.0000000000004,20.00000000000009,60.00000000000027,40.00000000000018,20.00000000000009,-0.0,-20.00000000000009,-20.00000000000009,-10.000000000000044
80.00000000000036,100.00000000000044,20.00000000000009,-90.0000000000004,20.00000000000009,60.00000000000027,40.00000000000018,20.00000000000009,-0.0,-10.000000000000044,-20.00000000000009,-10.000000000000044
80.00000000000036,100.00000000000044,10.000000000000044,-90.0000000000004,20.00000000000009,50.00000000000022,40.00000000000018,20.00000000000009,10.000000000000044,-0.0,-10.000000000000044,-0.0
70.00000000000031,100.00000000000044,10.000000000000044,-80.00000000000036,30.000000000000135,50.00000000000022,40.00000000000018,30.000000000000135,10.000000000000044,-0.0,-10.000000000000044,-0.0
70.00000000000031,90.0000000000004,-0.0,-80.00000000000036,30.000000000000135,40.00000000000018,40.00000000000018,40.00000000000018,20.00000000000009,-0.0,-0.0,-0.0
60.00000000000027,80.00000000000036,-0.0,-70.00000000000031,20.00000000000009,30.000000000000135,40.00000000000018,40.00000000000018,20.00000000000009,-0.0,-0.0,-0.0
60.00000000000027,70.00000000000031,-0.0,-60.00000000000027,20.00000000000009,30.000000000000135,40.00000000000018,40.00000000000018,30.000000000000135,-0.0,-0.0,-0.0
50.00000000000022,60.00000000000027,-0.0,-50.00000000000022,20.00000000000009,20.00000000000009,30.000000000000135,40.00000000000018,30.000000000000135,-0.0,-0.0,10.000000000000044
30.000000000000135,50.00000000000022,-0.0,-40.00000000000018,10.000000000000044,30.000000000000135,30.000000000000135,40.00000000000018,40.00000000000018,10.000000000000044,-0.0,10.000000000000044
20.00000000000009,50.00000000000022,10.000000000000044,-40.00000000000018,-0.0,20.00000000000009,30.000000000000135,50.00000000000022,40.00000000000018,10.000000000000044,-0.0,10.000000000000044
20.00000000000009,40.00000000000018,10.000000000000044,-30.000000000000135,-0.0,20.00000000000009,30.000000000000135,50.00000000000022,50.00000000000022,20.00000000000009,-0.0,10.000000000000044
10.000000000000044,30.000000000000135,-0.0,-20.00000000000009,-0.0,10.000000000000044,30.000000000000135,50.00000000000022,60.00000000000027,20.00000000000009,-0.0,10.000000000000044
10.000000000000044,20.00000000000009,-0.0,-20.00000000000009,-0.0,-0.0,20.00000000000009,60.00000000000027,60.00000000000027,30.000000000000135,10.000000000000044,10.000000000000044
20.00000000000009,20.00000000000009,-0.0,-20.00000000000009,-0.0,-0.0,20.00000000000009,60.00000000000027,70.00000000000031,30.000000000000135,10.000000000000044,10.000000000000044
20.00000000000009,10.000000000000044,-10.000000000000044,-20.00000000000009,10.000000000000044,-0.0,20.00000000000009,60.00000000000027,70.00000000000031,40.00000000000018,20.00000000000009,20.00000000000009
20.00000000000009,10.000000000000044,-10.000000000000044,-10.000000000000044,10.000000000000044,-0.0,20.00000000000009,70.00000000000031,70.00000000000031,40.00000000000018,20.00000000000009,20.00000000000009
10.000000000000044,10.000000000000044,-10.000000000000044,-10.000000000000044,10.000000000000044,-0.0,10.000000000000044,70.00000000000031,80.00000000000036,50.00000000000022,20.00000000000009,20.00000000000009
10.000000000000044,-0.0,-0.0,-10.000000000000044,-0.0,-0.0,10.000000000000044,70.00000000000031,80.00000000000036,50.00000000000022,30.000000000000135,30.000000000000135
-0.0,-0.0,-0.0,-0.0,-0.0,-0.0,10.000000000000044,70.00000000000031,90.0000000000004,60.00000000000027,40.00000000000018,30.000000000000135
-0.0,-0.0,-0.0,-0.0,-0.0,-0.0,10.000000000000044,80.00000000000036,90.0000000000004,60.00000000000027,40.00000000000018,30.000000000000135
-0.0,-0.0,10.000000000000044,-0.0,-0.0,10.000000000000044,-0.0,80.00000000000036,100.00000000000044,70.00000000000031,50.00000000000022,30.000000000000135
-0.0,10.000000000000044,10.000000000000044,-0.0,-0.0,10.000000000000044,-0.0,80.00000000000036,100.00000000000044,70.00000000000031,50.00000000000022,40.00000000000018
-0.0,10.000000000000044,-0.0,-0.0,-0.0,-0.0,-0.0,90.0000000000004,100.00000000000044,70.00000000000031,60.00000000000027,40.00000000000018
10.000000000000044,10.000000000000044,-0.0,-10.000000000000044,-0.0,-0.0,-0.0,90.0000000000004,100.00000000000044,80.00000000000036,60.00000000000027,40.00000000000018
10.000000000000044,10.000000000000044,-0.0,-10.000000000000044,-0.0,-0.0,-0.0,90.0000000000004,100.00000000000044,80.00000000000036,60.00000000000027,40.00000000000018
10.000000000000044,10.000000000000044,-0.0,-10.000000000000044,-0.0,-0.0,-0.0,90.0000000000004,100.00000000000044,80.00000000000036,70.00000000000031,40.00000000000018
10.000000000000044,10.000000000000044,-0.0,-10.000000000000044,-0.0,-0.0,-0.0,90.0000000000004,100.00000000000044,80.00000000000036,70.00000000000031,50.00000000000022
10.000000000000044,10.000000000000044,-0.0,-10.000000000000044,10.000000000000044,-0.0,-10.000000000000044,90.0000000000004,100.00000000000044,90.0000000000004,80.00000000000036,50.00000000000022
10.000000000000044,10.000000000000044,-0.0,-10.000000000000044,-0.0,-0.0,-10.000000000000044,90.0000000000004,100.00000000000044,90.0000000000004,80.00000000000036,50.00000000000022
20.00000000000009,10.000000000000044,-0.0,-10.000000000000044,10.000000000000044,-0.0,-20.00000000000009,90.0000000000004,110.00000000000048,100.00000000000044,90.0000000000004,60.00000000000027
20.00000000000009,10.000000000000044,-0.0,-20.00000000000009,10.000000000000044,-0.0,-20.00000000000009,90.0000000000004,110.00000000000048,100.00000000000044,100.00000000000044,60.00000000000027
20.00000000000009,20.00000000000009,-0.0,-20.00000000000009,-0.0,10.000000000000044,-30.000000000000135,90.0000000000004,120.00000000000054,110.00000000000048,100.00000000000044,60.00000000000027
10.000000000000044,20.00000000000009,-0.0,-20.00000000000009,-0.0,10.000000000000044,-30.000000000000135,90.0000000000004,120.00000000000054,120.00000000000054,110.00000000000048,60.00000000000027
10.000000000000044,20.00000000000009,-0.0,-10.000000000000044,-0.0,10.000000000000044,-40.00000000000018,90.0000000000004,130.00000000000057,130.00000000000057,120.00000000000054,70.00000000000031
10.000000000000044,20.00000000000009,-0.0,-10.000000000000044,-0.0,10.000000000000044,-40.00000000000018,90.0000000000004,130.00000000000057,140.00000000000063,130.00000000000057,70.00000000000031
-0.0,20.00000000000009,10.000000000000044,-10.000000000000044,-0.0,10.000000000000044,-50.00000000000022,90.0000000000004,130.00000000000057,150.00000000000065,140.00000000000063,80.00000000000036
-0.0,20.00000000000009,10.000000000000044,-10.000000000000044,-0.0,10.000000000000044,-50.00000000000022,90.0000000000004,140.00000000000063,150.00000000000065,150.00000000000065,80.00000000000036
-0.0,20.00000000000009,10.000000000000044,-10.000000000000044,-0.0,10.000000000000044,-50.00000000000022,90.0000000000004,140.00000000000063,160.0000000000007,150.00000000000065,80.00000000000036
-0.0,20.00000000000009,10.000000000000044,-10.000000000000044,-0.0,10.000000000000044,-50.00000000000022,90.0000000000004,130.00000000000057,150.00000000000065,150.00000000000065,80.00000000000036
10.000000000000044,20.00000000000009,10.000000000000044,-10.000000000000044,-0.0,10.000000000000044,-50.00000000000022,90.0000000000004,130.00000000000057,150.00000000000065,150.00000000000065,70.00000000000031
10.000000000000044,20.00000000000009,10.000000000000044,-10.000000000000044,-0.0,10.000000000000044,-40.00000000000018,80.00000000000036,120.00000000000054,140.00000000000063,140.00000000000063,60.00000000000027
10.000000000000044,20.00000000000009,-0.0,-10.000000000000044,-0.0,10.000000000000044,-40.00000000000018,80.00000000000036,110.00000000000048,120.00000000000054,130.00000000000057,60.00000000000027
10.000000000000044,20.00000000000009,-0.0,-10.000000000000044,-0.0,10.000000000000044,-30.000000000000135,70.00000000000031,100.00000000000044,110.00000000000048,120.00000000000054,50.00000000000022
10.000000000000044,20.00000000000009,-0.0,-10.000000000000044,-0.0,10.000000000000044,-30.000000000000135,70.00000000000031,90.0000000000004,100.00000000000044,100.00000000000044,40.00000000000018
10.000000000000044,20.00000000000009,-0.0,-10.000000000000044,-0.0,-0.0,-20.00000000000009,60.00000000000027,80.00000000000036,80.00000000000036,90.0000000000004,30.000000000000135
10.000000000000044,10.000000000000044,-0.0,-10.000000000000044,-0.0,-0.0,-20.00000000000009,60.00000000000027,70.00000000000031,70.00000000000031,80.00000000000036,20.00000000000009
-0.0,10.000000000000044,-0.0,-0.0,-0.0,-0.0,-10.000000000000044,50.00000000000022,60.00000000000027,60.00000000000027,60.00000000000027,10.000000000000044
-0.0,-0.0,-0.0,-0.0,-0.0,-0.0,-10.000000000000044,50.00000000000022,60.00000000000027,50.00000000000022,50.00000000000022,-0.0
-0.0,-0.0,10.000000000000044,-0.0,-0.0,-0.0,-0.0,40.00000000000018,50.00000000000022,50.00000000000022,50.00000000000022,-0.0
-0.0,-0.0,10.000000000000044,-0.0,-10.000000000000044,10.000000000000044,-0.0,40.00000000000018,50.00000000000022,40.00000000000018,40.00000000000018,-0.0
-10.000000000000044,10.000000000000044,20.00000000000009,-0.0,-10.000000000000044,10.000000000000044,-0.0,40.00000000000018,40.00000000000018,40.00000000000018,40.00000000000018,-0.0
-10.000000000000044,10.000000000000044,20.00000000000009,-0.0,-10.000000000000044,20.00000000000009,-0.0,30.000000000000135,40.00000000000018,30.000000000000135,30.000000000000135,-0.0
-0.0,10.000000000000044,20.00000000000009,-0.0,-10.000000000000044,10.000000000000044,-0.0,30.000000000000135,40.00000000000018,30.000000000000135,30.000000000000135,-0.0
-0.0,10.000000000000044,10.000000000000044,-0.0,-10.000000000000044,10.000000000000044,-0.0,30.000000000000135,40.00000000000018,30.000000000000135,20.00000000000009,-0.0
-0.0,10.000000000000044,10.000000000000044,-0.0,-0.0,-0.0,-0.0,30.000000000000135,40.00000000000018,30.000000000000135,20.00000000000009,-0.0
-0.0,-0.0,-0.0,-0.0,-0.0,-0.0,-0.0,40.00000000000018,40.00000000000018,30.000000000000135,20.00000000000009,-0.0
-0.0,-0.0,-0.0,-0.0,-0.0,-0.0,-0.0,40.00000000000018,40.00000000000018,30.000000000000135,20.00000000000009,-0.0
-0.0,-0.0,-0.0,-0.0,-0.0,-0.0,-0.0,40.00000000000018,40.00000000000018,30.000000000000135,20.00000000000009,-0.0
-0.0,-0.0,-0.0,-0.0,-0.0,-0.0,-0.0,40.00000000000018,40.00000000000018,30.000000000000135,20.00000000000009,-0.0
-0.0,-0.0,-0.0,-0.0,-0.0,-0.0,-0.0,40.00000000000018,40.00000000000018,30.000000000000135,20.00000000000009,-0.0
-0.0,-0.0,-0.0,-0.0,-0.0,-0.0,-0.0,50.00000000000022,50.00000000000022,40.00000000000018,30.000000000000135,-0.0
-0.0,-0.0,-0.0,-0.0,-0.0,-0.0,-0.0,50.00000000000022,50.00000000000022,30.000000000000135,20.00000000000009,-0.0
-0.0,-0.0,-0.0,-0.0,-0.0,-0.0,10.000000000000044,50.00000000000022,50.00000000000022,30.000000000000135,30.000000000000135,-0.0
-0.0,-0.0,-0.0,-0.0,-0.0,-0.0,10.000000000000044,50.00000000000022,50.00000000000022,30.000000000000135,30.000000000000135,-0.0
-0.0,-0.0,-0.0,-0.0,-0.0,-0.0,-0.0,60.00000000000027,50.00000000000022,30.000000000000135,30.000000000000135,-0.0
-0.0,-0.0,-0.0,-0.0,-0.0,-0.0,-0.0,50.00000000000022,50.00000000000022,30.000000000000135,30.000000000000135,-0.0
-10.000000000000044,-0.0,10.000000000000044,-0.0,-10.000000000000044,-0.0,-0.0,50.00000000000022,50.00000000000022,30.000000000000135,30.000000000000135,-0.0
-10.000000000000044,-0.0,10.000000000000044,-0.0,-10.000000000000044,-0.0,-0.0,50.00000000000022,50.00000000000022,30.000000000000135,30.000000000000135,-0.0
-10.000000000000044,-0.0,10.000000000000044,-0.0,-10.000000000000044,-0.0,-0.0,50.00000000000022,50.00000000000022,40.00000000000018,30.000000000000135,-0.0
-10.000000000000044,-0.0,10.000000000000044,-0.0,-10.000000000000044,-0.0,-0.0,50.00000000000022,60.00000000000027,40.00000000000018,30.000000000000135,-0.0
-10.000000000000044,-0.0,10.000000000000044,-0.0,-10.000000000000044,-0.0,-0.0,50.00000000000022,60.00000000000027,40.00000000000018,30.000000000000135,-0.0
-10.000000000000044,-0.0,-0.0,-0.0,-10.000000000000044,-0.0,-0.0,50.00000000000022,60.00000000000027,40.00000000000018,30.000000000000135,-0.0
-10.000000000000044,-0.0,-0.0,-0.0,-0.0,-0.0,-0.0,50.00000000000022,60.00000000000027,40.00000000000018,30.000000000000135,-0.0
-10.000000000000044,-0.0,-0.0,-0.0,-0.0,-0.0,-0.0,50.00000000000022,60.00000000000027,40.00000000000018,30.000000000000135,-0.0
-0.0,-0.0,-0.0,-0.0,-0.0,-0.0,-0.0,50.00000000000022,50.00000000000022,40.00000000000018,30.000000000000135,-0.0
-0.0,-0.0,-0.0,-0.0,-0.0,-0.0,-0.0,50.00000000000022,50.00000000000022,40.00000000000018,30.000000000000135,-0.0
-0.0,-0.0,-0.0,-0.0,-0.0,-0.0,-0.0,40.00000000000018,50.00000000000022,40.00000000000018,30.000000000000135,-0.0
-0.0,-0.0,-0.0,-0.0,-0.0,-0.0,-0.0,40.00000000000018,50.00000000000022,40.00000000000018,20.00000000000009,-0.0
-0.0,-0.0,-0.0,-0.0,-0.0,-0.0,-0.0,40.00000000000018,40.00000000000018,30.000000000000135,20.00000000000009,10.000000000000044
-0.0,-0.0,10.000000000000044,-0.0,-0.0,-0.0,-0.0,40.00000000000018,40.00000000000018,30.000000000000135,20.00000000000009,-0.0
-10.000000000000044,-0.0,10.000000000000044,-0.0,-10.000000000000044,-0.0,-0.0,30.000000000000135,30.000000000000135,20.00000000000009,20.00000000000009,-0.0
-10.000000000000044,-0.0,10.000000000000044,-0.0,-10.000000000000044,-0.0,-0.0,30.000000000000135,30.000000000000135,20.00000000000009,10.000000000000044,-0.0
-10.000000000000044,-0.0,10.000000000000044,-0.0,-10.000000000000044,-0.0,-0.0,20.00000000000009,30.000000000000135,20.00000000000009,10.000000000000044,-0.0
-10.000000000000044,-0.0,-0.0,-0.0,-10.000000000000044,-0.0,-0.0,20.00000000000009,30.000000000000135,20.00000000000009,10.000000000000044,-0.0
-10.000000000000044,-0.0,-0.0,-0.0,-0.0,-0.0,-0.0,20.00000000000009,30.000000000000135,20.00000000000009,10.000000000000044,-0.0
-0.0,-0.0,-0.0,-0.0,-0.0,-0.0,-0.0,20.00000000000009,30.000000000000135,10.000000000000044,10.000000000000044,-0.0
-0.0,-0.0,-0.0,-0.0,-0.0,-0.0,-0.0,20.00000000000009,30.000000000000135,10.000000000000044,10.000000000000044,-0.0
-0.0,-0.0,-0.0,-0.0,-0.0,-0.0,-0.0,20.00000000000009,20.00000000000009,10.000000000000044,-0.0,-0.0
-0.0,-0.0,-0.0,-0.0,-0.0,-0.0,-0.0,20.00000000000009,20.00000000000009,10.000000000000044,10.000000000000044,-0.0
-0.0,-0.0,-0.0,-0.0,-0.0,-0.0,-0.0,10.000000000000044,20.00000000000009,10.000000000000044,-0.0,-0.0
-10.000000000000044,-0.0,-0.0,-0.0,-10.000000000000044,-0.0,-0.0,10.000000000000044,10.000000000000044,-0.0,-0.0,-0.0
-10.000000000000044,-0.0,10.000000000000044,-0.0,-10.000000000000044,-0.0,-0.0,10.000000000000044,10.000000000000044,-0.0,-0.0,-0.0
-10.000000000000044,-0.0,10.000000000000044,-0.0,-10.000000000000044,-0.0,-0.0,-0.0,10.000000000000044,-0.0,-0.0,-0.0
-10.000000000000044,-0.0,10.000000000000044,-0.0,-10.000000000000044,-0.0,-0.0,-0.0,10.000000000000044,-0.0,-0.0,-0.0
-10.000000000000044,-0.0,10.000000000000044,-0.0,-10.000000000000044,-0.0,-0.0,-0.0,10.000000000000044,-0.0,-0.0,-0.0
-0.0,-0.0,-0.0,-0.0,-0.0,-0.0,-0.0,-0.0,10.000000000000044,-0.0,-0.0,-0.0
-10.000000000000044,-0.0,-0.0,-0.0,-0.0,-0.0,-0.0,-0.0,10.000000000000044,-0.0,-0.0,-0.0
-10.000000000000044,-0.0,-0.0,-0.0,-0.0,-0.0,-0.0,10.000000000000044,10.000000000000044,-0.0,-0.0,-0.0
-10.000000000000044,-0.0,-0.0,-0.0,-0.0,-0.0,-0.0,10.000000000000044,10.000000000000044,-0.0,10.000000000000044,-0.0
-10.000000000000044,-0.0,-0.0,10.000000000000044,-10.000000000000044,-0.0,-0.0,-0.0,10.000000000000044,-0.0,10.000000000000044,-0.0
-20.00000000000009,-0.0,-0.0,10.000000000000044,-10.000000000000044,-0.0,-0.0,-0.0,10.000000000000044,-0.0,10.000000000000044,-0.0
-20.00000000000009,-0.0,10.000000000000044,10.000000000000044,-10.000000000000044,-0.0,-0.0,-0.0,-0.0,-0.0,10.000000000000044,-0.0
-10.000000000000044,-0.0,-0.0,10.000000000000044,-10.000000000000044,-0.0,-0.0,-0.0,-0.0,-0.0,-0.0,-0.0
-10.000000000000044,-0.0,-0.0,10.000000000000044,-10.000000000000044,-0.0,-0.0,-0.0,-0.0,-0.0,-0.0,-0.0
-10.000000000000044,-0.0,-0.0,-0.0,-0.0,-0.0,-0.0,-0.0,-0.0,-0.0,-0.0,-0.0
-0.0,-0.0,-0.0,-0.0,-0.0,-0.0,-0.0,-0.0,-0.0,-0.0,-0.0,-0.0
-0.0,-0.0,-0.0,-0.0,-0.0,-0.0,-0.0,-0.0,-0.0,-0.0,-0.0,-0.0
-0.0,-0.0,-0.0,-0.0,-0.0,-0.0,-0.0,-0.0,-0.0,-0.0,-0.0,-0.0
-0.0,-0.0,-0.0,-0.0,-0.0,-0.0,-0.0,-0.0,-0.0,-0.0,-0.0,-0.0
-0.0,-0.0,-0.0,-0.0,-0.0,-0.0,-0.0,-0.0,-0.0,-0.0,-0.0,-0.0
-0.0,-0.0,-0.0,-0.0,-0.0,-0.0,-0.0,-0.0,-0.0,-0.0,-0.0,-0.0
-0.0,-0.0,-0.0,-0.0,-0.0,-0.0,-0.0,-0.0,-0.0,-0.0,-0.0,-0.0
-10.000000000000044,-0.0,-0.0,-0.0,-0.0,-0.0,-0.0,-0.0,-0.0,-0.0,-0.0,-0.0
-10.000000000000044,-0.0,-0.0,-0.0,-0.0,-0.0,-0.0,-0.0,-0.0,-0.0,-0.0,-0.0
-10.000000000000044,-0.0,-0.0,-0.0,-0.0,-0.0,-0.0,-0.0,-0.0,-0.0,-0.0,-0.0
-10.000000000000044,-0.0,-0.0,-0.0,-0.0,-0.0,-0.0,-0.0,-0.0,-0.0,-0.0,-0.0
-10.000000000000044,-0.0,10.000000000000044,-0.0,-10.000000000000044,-0.0,-0.0,-0.0,-0.0,-0.0,-0.0,-0.0
-20.00000000000009,-0.0,10.000000000000044,-0.0,-10.000000000000044,-0.0,-0.0,-0.0,-0.0,-0.0,-0.0,-0.0
-20.00000000000009,-0.0,20.00000000000009,10.000000000000044,-20.00000000000009,-0.0,-0.0,-0.0,-0.0,-0.0,-0.0,-0.0
-20.00000000000009,-0.0,20.00000000000009,10.000000000000044,-20.00000000000009,-0.0,-0.0,-0.0,-0.0,-0.0,-0.0,-0.0
-20.00000000000009,-0.0,10.000000000000044,10.000000000000044,-20.00000000000009,-0.0,-0.0,-0.0,-0.0,-0.0,-0.0,-0.0
-20.00000000000009,-0.0,-0.0,10.000000000000044,-10.000000000000044,-0.0,-0.0,-0.0,-0.0,-0.0,-0.0,-0.0
-10.000000000000044,-0.0,-0.0,-0.0,-0.0,-0.0,-0.0,-0.0,-0.0,-0.0,-0.0,-0.0
-0.0,-0.0,-0.0,-0.0,-0.0,-0.0,-0.0,-0.0,-0.0,-0.0,-0.0,-0.0
-0.0,-0.0,-0.0,-0.0,-0.0,-0.0,-0.0,-0.0,-0.0,-0.0,-0.0,-0.0
-0.0,-0.0,-0.0,-0.0,-0.0,-0.0,-0.0,-0.0,-0.0,-0.0,-0.0,-0.0
-0.0,-0.0,-0.0,-0.0,-0.0,-0.0,-0.0,-0.0,-0.0,-0.0,-0.0,-0.0
-0.0,-0.0,-0.0,-0.0,-0.0,-0.0,-0.0,-0.0,-10.000000000000044,-10.000000000000044,-0.0,-0.0
-10.000000000000044,-0.0,-0.0,-0.0,-0.0,-0.0,-0.0,-0.0,-10.000000000000044,-10.000000000000044,-10.000000000000044,-0.0
-10.000000000000044,-0.0,-0.0,10.000000000000044,-10.000000000000044,-0.0,-0.0,-10.000000000000044,-10.000000000000044,-10.000000000000044,-10.000000000000044,-0.0
-10.000000000000044,-0.0,-0.0,10.000000000000044,-10.000000000000044,-0.0,-0.0,-10.000000000000044,-10.000000000000044,-10.000000000000044,-10.000000000000044,-0.0
-10.000000000000044,-0.0,10.000000000000044,10.000000000000044,-10.000000000000044,-0.0,-0.0,-10.000000000000044,-10.000000000000044,-10.000000000000044,-10.000000000000044,-0.0
-10.000000000000044,-0.0,10.000000000000044,-0.0,-10.000000000000044,-0.0,-0.0,-10.000000000000044,-10.000000000000044,-10.000000000000044,-10.000000000000044,-0.0
-10.000000000000044,-0.0,10.000000000000044,-0.0,-10.000000000000044,-0.0,-0.0,-10.000000000000044,-10.000000000000044,-10.000000000000044,-10.000000000000044,-0.0
-0.0,-0.0,10.000000000000044,-0.0,-0.0,-0.0,-0.0,-10.000000000000044,-10.000000000000044,-10.000000000000044,-10.000000000000044,-0.0
-0.0,-0.0,-0.0,-0.0,-0.0,-0.0,-0.0,-10.000000000000044,-10.000000000000044,-10.000000000000044,-10.000000000000044,-0.0
-0.0,-0.0,-0.0,-0.0,-0.0,-0.0,-0.0,-10.000000000000044,-10.000000000000044,-10.000000000000044,-10.000000000000044,-0.0
-0.0,-0.0,-0.0,-0.0,-0.0,-0.0,-0.0,-10.000000000000044,-10.000000000000044,-20.00000000000009,-10.000000000000044,-0.0
-0.0,-0.0,-0.0,-0.0,-0.0,-0.0,-0.0,-10.000000000000044,-10.000000000000044,-20.00000000000009,-10.000000000000044,-0.0
-10.000000000000044,-0.0,-0.0,-0.0,-10.000000000000044,-0.0,-0.0,-10.000000000000044,-10.000000000000044,-20.00000000000009,-10.000000000000044,-0.0
-10.000000000000044,-0.0,-0.0,-0.0,-0.0,-0.0,-0.0,-10.000000000000044,-10.000000000000044,-20.00000000000009,-10.000000000000044,-0.0
-10.000000000000044,-0.0,-0.0,-0.0,-0.0,-0.0,-0.0,-0.0,-10.000000000000044,-20.00000000000009,-10.000000000000044,-0.0
-0.0,-0.0,-0.0,-0.0,-0.0,-0.0,-0.0,-0.0,-10.000000000000044,-10.000000000000044,-10.000000000000044,-0.0
-0.0,-0.0,-0.0,-0.0,-0.0,-0.0,-0.0,-0.0,-10.000000000000044,-10.000000000000044,-10.000000000000044,-0.0
-0.0,-0.0,-10.000000000000044,-0.0,-0.0,-0.0,-0.0,-0.0,-10.000000000000044,-10.000000000000044,-10.000000000000044,-0.0
10.000000000000044,-0.0,-10.000000000000044,-0.0,10.000000000000044,-0.0,-0.0,-0.0,-10.000000000000044,-10.000000000000044,-10.000000000000044,-0.0
10.000000000000044,-0.0,-10.000000000000044,-0.0,10.000000000000044,-0.0,-0.0,-0.0,-10.000000000000044,-10.000000000000044,-10.000000000000044,-0.0
-0.0,-0.0,-10.000000000000044,-0.0,-0.0,-0.0,-0.0,-0.0,-10.000000000000044,-10.000000000000044,-10.000000000000044,-0.0
-0.0,-0.0,-10.000000000000044,-0.0,-0.0,-0.0,-0.0,-0.0,-10.000000000000044,-20.00000000000009,-10.000000000000044,-0.0
-0.0,-0.0,-10.000000000000044,-0.0,-0.0,-10.000000000000044,-0.0,-0.0,-10.000000000000044,-20.00000000000009,-10.000000000000044,-0.0
-0.0,-0.0,-10.000000000000044,-0.0,-0.0,-10.000000000000044,-0.0,-0.0,-10.000000000000044,-20.00000000000009,-10.000000000000044,-0.0
-0.0,-10.000000000000044,-0.0,-0.0,-0.0,-0.0,-0.0,-10.000000000000044,-10.000000000000044,-20.00000000000009,-20.00000000000009,-0.0
-0.0,-10.000000000000044,-0.0,-0.0,-0.0,-0.0,-0.0,-0.0,-10.000000000000044,-20.00000000000009,-10.000000000000044,-0.0
-0.0,-10.000000000000044,-0.0,-0.0,-0.0,-0.0,-0.0,-0.0,-10.000000000000044,-10.000000000000044,-10.000000000000044,-0.0
-0.0,-0.0,10.000000000000044,-0.0,-0.0,-0.0,-0.0,-0.0,-10.000000000000044,-10.000000000000044,-10.000000000000044,-0.0
-0.0,-0.0,20.00000000000009,-10.000000000000044,-0.0,20.00000000000009,-0.0,-0.0,-10.000000000000044,-10.000000000000044,-10.000000000000044,-0.0
-0.0,20.00000000000009,20.00000000000009,-20.00000000000009,-0.0,30.000000000000135,-0.0,-10.000000000000044,-10.000000000000044,-10.000000000000044,-10.000000000000044,-0.0
10.000000000000044,30.000000000000135,30.000000000000135,-30.000000000000135,-0.0,40.00000000000018,-0.0,-10.000000000000044,-10.000000000000044,-20.00000000000009,-10.000000000000044,-0.0
20.00000000000009,50.00000000000022,30.000000000000135,-40.00000000000018,-0.0,40.00000000000018,-0.0,-10.000000000000044,-10.000000000000044,-10.000000000000044,-10.000000000000044,-0.0
20.00000000000009,50.00000000000022,20.00000000000009,-40.00000000000018,-0.0,40.00000000000018,-0.0,-10.000000000000044,-10.000000000000044,-10.000000000000044,-10.000000000000044,-0.0
20.00000000000009,50.00000000000022,20.00000000000009,-40.00000000000018,-0.0,40.00000000000018,-0.0,-10.000000000000044,-10.000000000000044,-10.000000000000044,-10.000000000000044,-0.0
30.000000000000135,50.00000000000022,20.00000000000009,-40.00000000000018,-0.0,30.000000000000135,-0.0,-10.000000000000044,-10.000000000000044,-10.000000000000044,-10.000000000000044,-0.0
30.000000000000135,50.00000000000022,20.00000000000009,-40.00000000000018,-0.0,30.000000000000135,-0.0,-10.000000000000044,-10.000000000000044,-10.000000000000044,-10.000000000000044,-0.0
30.000000000000135,50.00000000000022,10.000000000000044,-50.00000000000022,-0.0,30.000000000000135,-0.0,-10.000000000000044,-10.000000000000044,-10.000000000000044,-10.000000000000044,-0.0
40.00000000000018,50.00000000000022,10.000000000000044,-50.00000000000022,10.000000000000044,30.000000000000135,-0.0,-10.000000000000044,-10.000000000000044,-10.000000000000044,-10.000000000000044,-0.0
60.00000000000027,60.00000000000027,-0.0,-60.00000000000027,20.00000000000009,20.00000000000009,-0.0,-10.000000000000044,-10.000000000000044,-10.000000000000044,-0.0,-0.0
70.00000000000031,60.00000000000027,-20.00000000000009,-60.00000000000027,40.00000000000018,10.000000000000044,-0.0,-10.000000000000044,-10.000000000000044,-10.000000000000044,-0.0,-0.0
80.00000000000036,50.00000000000022,-40.00000000000018,-60.00000000000027,50.00000000000022,-0.0,-0.0,-10.000000000000044,-10.000000000000044,-0.0,-0.0,-0.0
80.00000000000036,30.000000000000135,-60.00000000000027,-50.00000000000022,60.00000000000027,-10.000000000000044,-0.0,-0.0,-0.0,-0.0,-0.0,-0.0
80.00000000000036,20.00000000000009,-70.00000000000031,-40.00000000000018,70.00000000000031,-30.000000000000135,-0.0,-0.0,-0.0,-0.0,-0.0,-0.0
70.00000000000031,-0.0,-70.00000000000031,-30.000000000000135,70.00000000000031,-30.000000000000135,-0.0,-0.0,-0.0,-0.0,-0.0,-0.0
50.00000000000022,-0.0,-60.00000000000027,-20.00000000000009,60.00000000000027,-30.000000000000135,-0.0,-0.0,-0.0,10.000000000000044,-0.0,-0.0
40.00000000000018,-0.0,-50.00000000000022,-20.00000000000009,40.00000000000018,-30.000000000000135,-0.0,-0.0,10.000000000000044,10.000000000000044,-0.0,-0.0
20.00000000000009,-0.0,-40.00000000000018,-10.000000000000044,30.000000000000135,-20.00000000000009,-0.0,10.000000000000044,10.000000000000044,20.00000000000009,10.000000000000044,-0.0
10.000000000000044,-0.0,-30.000000000000135,-0.0,20.00000000000009,-20.00000000000009,10.000000000000044,20.00000000000009,20.00000000000009,20.00000000000009,10.000000000000044,-0.0
-0.0,-10.000000000000044,-20.00000000000009,-0.0,10.000000000000044,-20.00000000000009,10.000000000000044,20.00000000000009,20.00000000000009,30.000000000000135,10.000000000000044,-0.0
-0.0,-10.000000000000044,-20.00000000000009,-0.0,-0.0,-20.00000000000009,-0.0,20.00000000000009,20.00000000000009,30.000000000000135,20.00000000000009,-0.0
-0.0,-20.00000000000009,-20.00000000000009,10.000000000000044,-0.0,-20.00000000000009,-0.0,10.000000000000044,20.00000000000009,30.000000000000135,30.000000000000135,-0.0
-0.0,-20.00000000000009,-20.00000000000009,10.000000000000044,-0.0,-20.00000000000009,-20.00000000000009,10.000000000000044,20.00000000000009,40.00000000000018,30.000000000000135,10.000000000000044
-0.0,-30.000000000000135,-20.00000000000009,10.000000000000044,-0.0,-20.00000000000009,-30.000000000000135,-0.0,20.00000000000009,40.00000000000018,40.00000000000018,10.000000000000044
-0.0,-30.000000000000135,-20.00000000000009,10.000000000000044,-0.0,-20.00000000000009,-50.00000000000022,-0.0,20.00000000000009,40.00000000000018,40.00000000000018,10.000000000000044
-0.0,-20.00000000000009,-10.000000000000044,10.000000000000044,-0.0,-20.00000000000009,-60.00000000000027,-0.0,20.00000000000009,40.00000000000018,50.00000000000022,10.000000000000044
-10.000000000000044,-20.00000000000009,-10.000000000000044,10.000000000000044,-0.0,-20.00000000000009,-60.00000000000027,-0.0,20.00000000000009,40.00000000000018,50.00000000000022,10.000000000000044
-10.000000000000044,-20.00000000000009,-10.000000000000044,20.00000000000009,-0.0,-20.00000000000009,-60.00000000000027,-0.0,20.00000000000009,40.00000000000018,50.00000000000022,10.000000000000044
-20.00000000000009,-30.000000000000135,-10.000000000000044,20.00000000000009,-0.0,-20.00000000000009,-50.00000000000022,-0.0,10.000000000000044,40.00000000000018,50.00000000000022,10.000000000000044
-10.000000000000044,-30.000000000000135,-20.00000000000009,10.000000000000044,-0.0,-30.000000000000135,-40.00000000000018,-0.0,10.000000000000044,30.000000000000135,40.00000000000018,10.000000000000044
20.00000000000009,-30.000000000000135,-40.00000000000018,-10.000000000000044,30.000000000000135,-30.000000000000135,-40.00000000000018,-0.0,-0.0,20.00000000000009,40.00000000000018,-0.0
90.0000000000004,-10.000000000000044,-60.00000000000027,-60.00000000000027,70.00000000000031,-10.000000000000044,-40.00000000000018,-0.0,-0.0,10.000000000000044,30.000000000000135,-0.0
190.00000000000085,30.000000000000135,-80.00000000000036,-160.0000000000007,130.00000000000057,10.000000000000044,-30.000000000000135,-10.000000000000044,-10.000000000000044,-0.0,20.00000000000009,-0.0
320.0000000000014,120.00000000000054,-90.0000000000004,-280.00000000000125,200.00000000000088,60.00000000000027,-30.000000000000135,-20.00000000000009,-20.00000000000009,-0.0,10.000000000000044,-0.0
450.000000000002,230.00000000000102,-110.00000000000048,-400.00000000000176,280.00000000000125,110.00000000000048,-30.000000000000135,-30.000000000000135,-30.000000000000135,-10.000000000000044,-0.0,-0.0
550.0000000000024,340.00000000000153,-130.00000000000057,-480.00000000000216,340.00000000000153,140.00000000000063,-30.000000000000135,-30.000000000000135,-40.00000000000018,-20.00000000000009,-0.0,-0.0
590.0000000000026,410.0000000000018,-160.0000000000007,-510.0000000000023,380.0000000000017,130.00000000000057,-30.000000000000135,-40.00000000000018,-40.00000000000018,-30.000000000000135,-10.000000000000044,-0.0
540.0000000000024,430.00000000000193,-180.0000000000008,-460.00000000000205,350.00000000000153,90.0000000000004,-20.00000000000009,-40.00000000000018,-50.00000000000022,-30.000000000000135,-20.00000000000009,-0.0
420.0000000000019,370.00000000000165,-160.0000000000007,-350.00000000000153,280.00000000000125,40.00000000000018,-20.00000000000009,-40.00000000000018,-50.00000000000022,-30.000000000000135,-20.00000000000009,-0.0
260.00000000000114,260.00000000000114,-100.00000000000044,-210.00000000000094,170.00000000000077,10.000000000000044,-20.00000000000009,-40.00000000000018,-50.00000000000022,-30.000000000000135,-20.00000000000009,-0.0
90.0000000000004,150.00000000000065,-20.00000000000009,-80.00000000000036,50.00000000000022,10.000000000000044,-10.000000000000044,-40.00000000000018,-50.00000000000022,-30.000000000000135,-20.00000000000009,10.000000000000044
-40.00000000000018,60.00000000000027,60.00000000000027,10.000000000000044,-50.00000000000022,40.00000000000018,-20.00000000000009,-50.00000000000022,-60.00000000000027,-30.000000000000135,-20.00000000000009,-0.0
-120.00000000000054,10.000000000000044,120.00000000000054,50.00000000000022,-120.00000000000054,60.00000000000027,-20.00000000000009,-60.00000000000027,-60.00000000000027,-30.000000000000135,-20.00000000000009,-0.0
-140.00000000000063,-0.0,150.00000000000065,60.00000000000027,-150.00000000000065,80.00000000000036,-30.000000000000135,-70.00000000000031,-70.00000000000031,-40.00000000000018,-20.00000000000009,-0.0
-110.00000000000048,10.000000000000044,130.00000000000057,40.00000000000018,-120.00000000000054,70.00000000000031,-20.00000000000009,-70.00000000000031,-50.00000000000022,-40.00000000000018,-30.000000000000135,-0.0
-70.00000000000031,20.00000000000009,90.0000000000004,20.00000000000009,-80.00000000000036,50.00000000000022,-10.000000000000044,-50.00000000000022,-0.0,-20.00000000000009,-40.00000000000018,-0.0
-30.000000000000135,20.00000000000009,40.00000000000018,-0.0,-40.00000000000018,20.00000000000009,10.000000000000044,-0.0,80.00000000000036,30.000000000000135,-40.00000000000018,-0.0
-10.000000000000044,-0.0,-0.0,-0.0,-10.000000000000044,-0.0,40.00000000000018,70.00000000000031,200.00000000000088,150.00000000000065,-0.0,-0.0
-0.0,-0.0,-10.000000000000044,10.000000000000044,-0.0,-10.000000000000044,40.00000000000018,150.00000000000065,330.0000000000015,340.00000000000153,90.0000000000004,40.00000000000018
-0.0,-20.00000000000009,-20.00000000000009,10.000000000000044,-0.0,-20.00000000000009,-0.0,180.0000000000008,450.000000000002,590.0000000000026,260.00000000000114,120.00000000000054
-10.000000000000044,-20.00000000000009,-10.000000000000044,20.00000000000009,-0.0,-20.00000000000009,-90.0000000000004,120.00000000000054,520.0000000000023,870.0000000000039,490.00000000000216,240.00000000000108
-20.00000000000009,-30.000000000000135,-10.000000000000044,20.00000000000009,-0.0,-20.00000000000009,-260.00000000000114,-40.00000000000018,480.00000000000216,1100.0000000000048,760.0000000000034,370.00000000000165
-20.00000000000009,-30.000000000000135,-10.000000000000044,20.00000000000009,-0.0,-20.00000000000009,-460.00000000000205,-300.0000000000013,340.00000000000153,1230.0000000000055,1020.0000000000045,500.0000000000022
-20.00000000000009,-30.000000000000135,-10.000000000000044,30.000000000000135,-0.0,-20.00000000000009,-650.0000000000028,-610.0000000000027,110.00000000000048,1170.0000000000052,1180.0000000000052,580.0000000000026
-20.00000000000009,-40.00000000000018,-10.000000000000044,30.000000000000135,-0.0,-20.00000000000009,-770.0000000000034,-900.000000000004,-160.0000000000007,950.0000000000042,1190.0000000000052,570.0000000000025
-30.000000000000135,-40.00000000000018,-0.0,30.000000000000135,-10.000000000000044,-20.00000000000009,-790.0000000000035,-1110.000000000005,-420.0000000000019,620.0000000000027,1030.0000000000045,480.00000000000216
-20.00000000000009,-30.000000000000135,-10.000000000000044,30.000000000000135,-0.0,-20.00000000000009,-710.0000000000032,-1210.0000000000055,-620.0000000000027,250.0000000000011,750.0000000000033,320.0000000000014
-20.00000000000009,-40.00000000000018,-10.000000000000044,30.000000000000135,-0.0,-20.00000000000009,-560.0000000000025,-1170.0000000000052,-720.0000000000032,-50.00000000000022,410.0000000000018,140.00000000000063
-30.000000000000135,-40.00000000000018,-10.000000000000044,30.000000000000135,-0.0,-20.00000000000009,-400.00000000000176,-1060.0000000000048,-720.0000000000032,-240.00000000000108,120.00000000000054,-20.00000000000009
-30.000000000000135,-40.00000000000018,-0.0,30.000000000000135,-10.000000000000044,-20.00000000000009,-250.0000000000011,-910.0000000000041,-640.0000000000028,-310.00000000000136,-80.00000000000036,-130.00000000000057
-30.000000000000135,-40.00000000000018,-0.0,30.000000000000135,-10.000000000000044,-20.00000000000009,-150.00000000000065,-740.0000000000033,-520.0000000000023,-260.00000000000114,-180.0000000000008,-190.00000000000085
-30.000000000000135,-40.00000000000018,-0.0,30.000000000000135,-10.000000000000044,-20.00000000000009,-90.0000000000004,-580.0000000000026,-380.0000000000017,-190.00000000000085,-190.00000000000085,-190.00000000000085
-30.000000000000135,-40.00000000000018,-0.0,30.000000000000135,-10.000000000000044,-20.00000000000009,-70.00000000000031,-440.00000000000193,-260.00000000000114,-120.00000000000054,-140.00000000000063,-160.0000000000007
-30.000000000000135,-40.00000000000018,-0.0,30.000000000000135,-10.000000000000044,-20.00000000000009,-50.00000000000022,-320.0000000000014,-180.0000000000008,-70.00000000000031,-90.0000000000004,-120.00000000000054
-20.00000000000009,-30.000000000000135,-0.0,30.000000000000135,-0.0,-20.00000000000009,-40.00000000000018,-220.00000000000097,-130.00000000000057,-60.00000000000027,-60.00000000000027,-100.00000000000044
-20.00000000000009,-30.000000000000135,-0.0,20.00000000000009,-0.0,-10.000000000000044,-20.00000000000009,-140.00000000000063,-100.00000000000044,-60.00000000000027,-50.00000000000022,-90.0000000000004
-20.00000000000009,-30.000000000000135,-0.0,20.00000000000009,-0.0,-10.000000000000044,-0.0,-90.0000000000004,-90.0000000000004,-70.00000000000031,-50.00000000000022,-80.00000000000036
-20.00000000000009,-30.000000000000135,-0.0,30.000000000000135,-0.0,-20.00000000000009,-0.0,-70.00000000000031,-80.00000000000036,-70.00000000000031,-60.00000000000027,-70.00000000000031
-30.000000000000135,-30.000000000000135,-0.0,30.000000000000135,-10.000000000000044,-10.000000000000044,10.000000000000044,-50.00000000000022,-70.00000000000031,-70.00000000000031,-60.00000000000027,-70.00000000000031
-40.00000000000018,-30.000000000000135,-0.0,30.000000000000135,-20.00000000000009,-10.000000000000044,20.00000000000009,-40.00000000000018,-70.00000000000031,-60.00000000000027,-60.00000000000027,-60.00000000000027
-40.00000000000018,-30.000000000000135,10.000000000000044,30.000000000000135,-20.00000000000009,-0.0,30.000000000000135,-30.000000000000135,-60.00000000000027,-60.00000000000027,-60.00000000000027,-60.00000000000027
-40.00000000000018,-30.000000000000135,10.000000000000044,30.000000000000135,-30.000000000000135,-0.0,30.000000000000135,-20.00000000000009,-60.00000000000027,-60.00000000000027,-60.00000000000027,-50.00000000000022
-50.00000000000022,-30.000000000000135,20.00000000000009,40.00000000000018,-40.00000000000018,-0.0,30.000000000000135,-20.00000000000009,-50.00000000000022,-60.00000000000027,-60.00000000000027,-50.00000000000022
-50.00000000000022,-30.000000000000135,20.00000000000009,30.000000000000135,-30.000000000000135,-0.0,30.000000000000135,-10.000000000000044,-50.00000000000022,-60.00000000000027,-60.00000000000027,-40.00000000000018
-40.00000000000018,-20.00000000000009,10.000000000000044,30.000000000000135,-30.000000000000135,-0.0,30.000000000000135,-10.000000000000044,-50.00000000000022,-60.00000000000027,-60.00000000000027,-40.00000000000018
-40.00000000000018,-20.00000000000009,10.000000000000044,30.000000000000135,-20.00000000000009,-0.0,30.000000000000135,-10.000000000000044,-40.00000000000018,-50.00000000000022,-50.00000000000022,-40.00000000000018
-30.000000000000135,-20.00000000000009,10.000000000000044,20.00000000000009,-20.00000000000009,-0.0,30.000000000000135,-0.0,-40.00000000000018,-50.00000000000022,-50.00000000000022,-30.000000000000135
-30.000000000000135,-20.00000000000009,-0.0,20.00000000000009,-10.000000000000044,-0.0,40.00000000000018,-0.0,-40.00000000000018,-50.00000000000022,-50.00000000000022,-30.000000000000135
-30.000000000000135,-20.00000000000009,-0.0,20.00000000000009,-20.00000000000009,-0.0,40.00000000000018,-0.0,-30.000000000000135,-50.00000000000022,-50.00000000000022,-30.000000000000135
-30.000000000000135,-10.000000000000044,10.000000000000044,20.00000000000009,-20.00000000000009,-0.0,40.00000000000018,-0.0,-30.000000000000135,-40.00000000000018,-50.00000000000022,-20.00000000000009
-30.000000000000135,-10.000000000000044,10.000000000000044,20.00000000000009,-20.00000000000009,-0.0,40.00000000000018,-0.0,-30.000000000000135,-40.00000000000018,-40.00000000000018,-20.00000000000009
-20.00000000000009,-10.000000000000044,10.000000000000044,10.000000000000044,-10.000000000000044,-0.0,40.00000000000018,-0.0,-20.00000000000009,-40.00000000000018,-40.00000000000018,-20.00000000000009
-20.00000000000009,-10.000000000000044,-0.0,10.000000000000044,-10.000000000000044,-0.0,40.00000000000018,-0.0,-20.00000000000009,-30.000000000000135,-40.00000000000018,-10.000000000000044
-10.000000000000044,-10.000000000000044,-0.0,10.000000000000044,-0.0,-0.0,40.00000000000018,10.000000000000044,-20.00000000000009,-30.000000000000135,-40.00000000000018,-10.000000000000044
-0.0,-10.000000000000044,-0.0,10.000000000000044,-0.0,-10.000000000000044,40.00000000000018,10.000000000000044,-10.000000000000044,-30.000000000000135,-30.000000000000135,-10.000000000000044
-0.0,-10.000000000000044,-0.0,10.000000000000044,-0.0,-10.000000000000044,40.00000000000018,10.000000000000044,-10.000000000000044,-30.000000000000135,-30.000000000000135,-10.000000000000044
-10.000000000000044,-10.000000000000044,-0.0,10.000000000000044,-0.0,-10.000000000000044,30.000000000000135,10.000000000000044,-10.000000000000044,-20.00000000000009,-30.000000000000135,-10.000000000000044
-20.00000000000009,-20.00000000000009,-0.0,10.000000000000044,-0.0,-10.000000000000044,30.000000000000135,10.000000000000044,-10.000000000000044,-20.00000000000009,-30.000000000000135,-0.0
-20.00000000000009,-20.00000000000009,-0.0,20.00000000000009,-10.000000000000044,-0.0,30.000000000000135,10.000000000000044,-0.0,-20.00000000000009,-30.000000000000135,-0.0
-20.00000000000009,-10.000000000000044,-0.0,10.000000000000044,-10.000000000000044,-0.0,30.000000000000135,10.000000000000044,-0.0,-10.000000000000044,-30.000000000000135,-0.0
-20.00000000000009,-10.000000000000044,-0.0,10.000000000000044,-10.000000000000044,-0.0,30.000000000000135,20.00000000000009,-0.0,-10.000000000000044,-20.00000000000009,-0.0
-10.000000000000044,-10.000000000000044,-0.0,-0.0,-0.0,-0.0,30.000000000000135,20.00000000000009,-0.0,-10.000000000000044,-20.00000000000009,-0.0
-0.0,-0.0,-10.000000000000044,-0.0,-0.0,-0.0,30.000000000000135,20.00000000000009,-0.0,-0.0,-20.00000000000009,-0.0
-0.0,-0.0,-10.000000000000044,-0.0,10.000000000000044,-10.000000000000044,30.000000000000135,30.000000000000135,10.000000000000044,-0.0,-10.000000000000044,-0.0
10.000000000000044,-0.0,-20.00000000000009,-0.0,10.000000000000044,-10.000000000000044,20.00000000000009,30.000000000000135,10.000000000000044,-0.0,-10.000000000000044,-0.0
10.000000000000044,-0.0,-10.000000000000044,-0.0,10.000000000000044,-0.0,20.00000000000009,30.000000000000135,10.000000000000044,-0.0,-10.000000000000044,-0.0
10.000000000000044,-0.0,-10.000000000000044,-0.0,10.000000000000044,-0.0,20.00000000000009,30.000000000000135,20.00000000000009,-0.0,-0.0,-0.0
10.000000000000044,-0.0,-0.0,-0.0,-0.0,-0.0,20.00000000000009,30.000000000000135,20.00000000000009,-0.0,-0.0,-0.0
10.000000000000044,-0.0,-0.0,-10.000000000000044,-0.0,-0.0,20.00000000000009,30.000000000000135,20.00000000000009,10.000000000000044,-0.0,-0.0
10.000000000000044,10.000000000000044,-0.0,-10.000000000000044,-0.0,10.000000000000044,20.00000000000009,30.000000000000135,30.000000000000135,10.000000000000044,-0.0,-0.0
