I,II,III,aVR,aVL,aVF,V1,V2,V3,V4,V5,V6
-10.000000000000044,-40.00000000000018,-30.000000000000135,20.00000000000009,10.000000000000044,-40.00000000000018,-0.0,-0.0,-80.00000000000036,-20.00000000000009,-0.0,-0.0
-10.000000000000044,-40.00000000000018,-30.000000000000135,30.000000000000135,-0.0,-40.00000000000018,-50.00000000000022,-90.0000000000004,-90.0000000000004,-30.000000000000135,-0.0,-0.0
-20.00000000000009,-50.00000000000022,-30.000000000000135,30.000000000000135,-0.0,-40.00000000000018,-50.00000000000022,-90.0000000000004,-90.0000000000004,-40.00000000000018,-10.000000000000044,-0.0
-30.000000000000135,-50.00000000000022,-20.00000000000009,40.00000000000018,-0.0,-40.00000000000018,-50.00000000000022,-100.00000000000044,-100.00000000000044,-50.00000000000022,-20.00000000000009,-0.0
-40.00000000000018,-60.00000000000027,-20.00000000000009,50.00000000000022,-0.0,-40.00000000000018,-50.00000000000022,-100.00000000000044,-100.00000000000044,-60.00000000000027,-30.000000000000135,-20.00000000000009
-40.00000000000018,-60.00000000000027,-10.000000000000044,50.00000000000022,-10.000000000000044,-40.00000000000018,-40.00000000000018,-100.00000000000044,-100.00000000000044,-60.00000000000027,-40.00000000000018,-30.000000000000135
-50.00000000000022,-60.00000000000027,-10.000000000000044,60.00000000000027,-10.000000000000044,-40.00000000000018,-50.00000000000022,-100.00000000000044,-100.00000000000044,-60.00000000000027,-40.00000000000018,-30.000000000000135
-50.00000000000022,-70.00000000000031,-10.000000000000044,60.00000000000027,-10.000000000000044,-40.00000000000018,-40.00000000000018,-100.00000000000044,-100.00000000000044,-60.00000000000027,-40.00000000000018,-30.000000000000135
-50.00000000000022,-70.00000000000031,-10.000000000000044,60.00000000000027,-10.000000000000044,-40.00000000000018,-40.00000000000018,-90.0000000000004,-90.0000000000004,-50.00000000000022,-40.00000000000018,-30.000000000000135
-50.00000000000022,-70.00000000000031,-10.000000000000044,60.00000000000027,-10.000000000000044,-40.00000000000018,-40.00000000000018,-90.0000000000004,-180.0000000000008,-180.0000000000008,-40.00000000000018,-30.000000000000135
-50.00000000000022,-70.00000000000031,-20.00000000000009,50.00000000000022,-10.000000000000044,-40.00000000000018,-180.0000000000008,-180.0000000000008,-190.00000000000085,-190.00000000000085,-180.0000000000008,-40.00000000000018
-40.00000000000018,-70.00000000000031,-20.00000000000009,50.00000000000022,-10.000000000000044,-40.00000000000018,-190.00000000000085,-190.00000000000085,-210.00000000000094,-210.00000000000094,-190.00000000000085,-50.00000000000022
-30.000000000000135,-60.00000000000027,-20.00000000000009,40.00000000000018,-0.0,-40.00000000000018,-210.00000000000094,-210.00000000000094,-220.00000000000097,-220.00000000000097,-210.00000000000094,-60.00000000000027
-30.000000000000135,-60.00000000000027,-20.00000000000009,40.00000000000018,-0.0,-30.000000000000135,-220.00000000000097,-220.00000000000097,-240.00000000000108,-240.00000000000108,-220.00000000000097,-220.00000000000097
-30.000000000000135,-50.00000000000022,-20.00000000000009,40.00000000000018,-0.0,-30.000000000000135,-240.00000000000108,-240.00000000000108,-260.00000000000114,-260.00000000000114,-240.00000000000108,-240.00000000000108
-20.00000000000009,-50.00000000000022,-20.00000000000009,30.000000000000135,-0.0,-30.000000000000135,-260.00000000000114,-260.00000000000114,-290.0000000000013,-290.0000000000013,-260.00000000000114,-260.00000000000114
-20.00000000000009,-50.00000000000022,-20.00000000000009,30.000000000000135,-0.0,-30.000000000000135,-290.0000000000013,-290.0000000000013,-320.0000000000014,-320.0000000000014,-290.0000000000013,-290.0000000000013
-10.000000000000044,-40.00000000000018,-20.00000000000009,20.00000000000009,-0.0,-30.000000000000135,-320.0000000000014,-320.0000000000014,-350.00000000000153,-350.00000000000153,-320.0000000000014,-320.0000000000014
-10.000000000000044,-40.00000000000018,-20.00000000000009,20.00000000000009,-0.0,-20.00000000000009,-350.00000000000153,-350.00000000000153,-360.0000000000016,-360.0000000000016,-350.00000000000153,-350.00000000000153
-10.000000000000044,-30.000000000000135,-10.000000000000044,20.00000000000009,-0.0,-20.00000000000009,-360.0000000000016,-360.0000000000016,-380.0000000000017,-380.0000000000017,-360.0000000000016,-360.0000000000016
-20.00000000000009,-30.000000000000135,-0.0,20.00000000000009,-0.0,-10.000000000000044,-380.0000000000017,-380.0000000000017,-400.00000000000176,-400.00000000000176,-380.0000000000017,-380.0000000000017
-20.00000000000009,-20.00000000000009,-0.0,20.00000000000009,-10.000000000000044,-10.000000000000044,-400.00000000000176,-400.00000000000176,-380.0000000000017,-380.0000000000017,-400.00000000000176,-400.00000000000176
-20.00000000000009,-20.00000000000009,-0.0,20.00000000000009,-10.000000000000044,-0.0,-410.0000000000018,-380.0000000000017,-360.0000000000016,-360.0000000000016,-380.0000000000017,-380.0000000000017
-30.000000000000135,-10.000000000000044,10.000000000000044,20.00000000000009,-20.00000000000009,-0.0,-360.0000000000016,-290.0000000000013,-350.00000000000153,-350.00000000000153,-360.0000000000016,-360.0000000000016
-30.000000000000135,-10.000000000000044,20.00000000000009,20.00000000000009,-20.00000000000009,-0.0,-350.00000000000153,-380.0000000000017,-250.0000000000011,-320.0000000000014,-350.00000000000153,-350.00000000000153
-30.000000000000135,-10.000000000000044,10.000000000000044,10.000000000000044,-20.00000000000009,-0.0,-320.0000000000014,-320.0000000000014,-310.00000000000136,-290.0000000000013,-320.0000000000014,-320.0000000000014
-20.00000000000009,-10.000000000000044,10.000000000000044,10.000000000000044,-20.00000000000009,-0.0,-290.0000000000013,-290.0000000000013,-260.00000000000114,-260.00000000000114,-290.0000000000013,-290.0000000000013
-10.000000000000044,-0.0,-0.0,-0.0,-10.000000000000044,-0.0,-260.00000000000114,-260.00000000000114,-240.00000000000108,-180.0000000000008,-260.00000000000114,-260.00000000000114
-0.0,-0.0,-0.0,-0.0,-0.0,-0.0,-240.00000000000108,-240.00000000000108,-220.00000000000097,-220.00000000000097,-240.00000000000108,-240.00000000000108
-0.0,-0.0,-0.0,-0.0,-0.0,-0.0,-220.00000000000097,-220.00000000000097,-210.00000000000094,-210.00000000000094,-220.00000000000097,-220.00000000000097
10.000000000000044,-0.0,-0.0,-10.000000000000044,-0.0,-0.0,-230.00000000000102,-210.00000000000094,-190.00000000000085,-200.00000000000088,-210.00000000000094,-210.00000000000094
10.000000000000044,10.000000000000044,-0.0,-20.00000000000009,-0.0,-0.0,-160.0000000000007,-240.00000000000108,-180.0000000000008,-180.0000000000008,-190.00000000000085,-190.00000000000085
20.00000000000009,10.000000000000044,-0.0,-20.00000000000009,-0.0,10.000000000000044,-70.00000000000031,-170.00000000000077,-170.00000000000077,-140.00000000000063,-180.0000000000008,-180.0000000000008
20.00000000000009,20.00000000000009,-0.0,-30.000000000000135,-0.0,20.00000000000009,-20.00000000000009,-90.0000000000004,-110.00000000000048,-110.00000000000048,-100.00000000000044,-60.00000000000027
20.00000000000009,30.000000000000135,10.000000000000044,-40.00000000000018,-0.0,30.000000000000135,20.00000000000009,-40.00000000000018,-70.00000000000031,-90.0000000000004,-90.0000000000004,-60.00000000000027
30.000000000000135,40.00000000000018,20.00000000000009,-50.00000000000022,-0.0,40.00000000000018,40.00000000000018,-10.000000000000044,-50.00000000000022,-80.00000000000036,-90.0000000000004,-70.00000000000031
40.00000000000018,60.00000000000027,20.00000000000009,-60.00000000000027,-0.0,50.00000000000022,60.00000000000027,-0.0,-40.00000000000018,-90.0000000000004,-90.0000000000004,-70.00000000000031
50.00000000000022,70.00000000000031,30.000000000000135,-70.00000000000031,-0.0,50.00000000000022,70.00000000000031,10.000000000000044,-40.00000000000018,-90.0000000000004,-90.0000000000004,-80.00000000000036
60.00000000000027,80.00000000000036,30.000000000000135,-80.00000000000036,10.000000000000044,60.00000000000027,80.00000000000036,10.000000000000044,-40.00000000000018,-90.0000000000004,-90.0000000000004,-80.00000000000036
60.00000000000027,90.0000000000004,30.000000000000135,-80.00000000000036,10.000000000000044,60.00000000000027,80.00000000000036,10.000000000000044,-30.000000000000135,-90.0000000000004,-90.0000000000004,-80.00000000000036
70.00000000000031,100.00000000000044,30.000000000000135,-90.0000000000004,10.000000000000044,70.00000000000031,80.00000000000036,20.00000000000009,-20.00000000000009,-90.0000000000004,-90.0000000000004,-80.00000000000036
80.00000000000036,100.00000000000044,30.000000000000135,-100.00000000000044,10.000000000000044,70.00000000000031,80.00000000000036,30.000000000000135,-10.000000000000044,-80.00000000000036,-90.0000000000004,-80.00000000000036
80.00000000000036,110.00000000000048,40.00000000000018,-100.00000000000044,10.000000000000044,80.00000000000036,80.00000000000036,30.000000000000135,-10.000000000000044,-80.00000000000036,-80.00000000000036,-80.00000000000036
90.0000000000004,120.00000000000054,40.00000000000018,-110.00000000000048,10.000000000000044,90.0000000000004,90.0000000000004,40.00000000000018,-0.0,-70.00000000000031,-80.00000000000036,-80.00000000000036
90.0000000000004,130.00000000000057,50.00000000000022,-120.00000000000054,20.00000000000009,100.00000000000044,90.0000000000004,50.00000000000022,-0.0,-70.00000000000031,-80.00000000000036,-70.00000000000031
100.00000000000044,150.00000000000065,50.00000000000022,-130.00000000000057,20.00000000000009,100.00000000000044,90.0000000000004,50.00000000000022,-0.0,-60.00000000000027,-70.00000000000031,-70.00000000000031
110.00000000000048,160.0000000000007,50.00000000000022,-140.00000000000063,30.000000000000135,110.00000000000048,90.0000000000004,50.00000000000022,-0.0,-60.00000000000027,-70.00000000000031,-70.00000000000031
120.00000000000054,170.00000000000077,40.00000000000018,-150.00000000000065,30.000000000000135,110.00000000000048,90.0000000000004,60.00000000000027,-0.0,-60.00000000000027,-70.00000000000031,-70.00000000000031
130.00000000000057,180.0000000000008,40.00000000000018,-200.00000000000088,40.00000000000018,110.00000000000048,90.0000000000004,60.00000000000027,-0.0,-60.00000000000027,-70.00000000000031,-70.00000000000031
140.00000000000063,180.0000000000008,30.000000000000135,-190.00000000000085,40.00000000000018,110.00000000000048,80.00000000000036,60.00000000000027,-0.0,-60.00000000000027,-70.00000000000031,-70.00000000000031
140.00000000000063,180.0000000000008,30.000000000000135,-170.00000000000077,50.00000000000022,100.00000000000044,80.00000000000036,60.00000000000027,10.000000000000044,-60.00000000000027,-70.00000000000031,-70.00000000000031
150.00000000000065,180.0000000000008,20.00000000000009,-160.0000000000007,60.00000000000027,90.0000000000004,80.00000000000036,60.00000000000027,10.000000000000044,-50.00000000000022,-70.00000000000031,-70.00000000000031
150.00000000000065,170.00000000000077,10.000000000000044,-160.0000000000007,60.00000000000027,90.0000000000004,80.00000000000036,60.00000000000027,20.00000000000009,-50.00000000000022,-60.00000000000027,-70.00000000000031
140.00000000000063,160.0000000000007,10.000000000000044,-150.00000000000065,60.00000000000027,80.00000000000036,80.00000000000036,70.00000000000031,30.000000000000135,-40.00000000000018,-60.00000000000027,-60.00000000000027
130.00000000000057,150.00000000000065,-0.0,-140.00000000000063,60.00000000000027,70.00000000000031,90.0000000000004,70.00000000000031,40.00000000000018,-30.000000000000135,-50.00000000000022,-60.00000000000027
120.00000000000054,140.00000000000063,-0.0,-130.00000000000057,60.00000000000027,70.00000000000031,90.0000000000004,80.00000000000036,50.00000000000022,-20.00000000000009,-50.00000000000022,-50.00000000000022
110.00000000000048,130.00000000000057,-0.0,-120.00000000000054,50.00000000000022,60.00000000000027,90.0000000000004,90.0000000000004,60.00000000000027,-10.000000000000044,-40.00000000000018,-50.00000000000022
100.00000000000044,120.00000000000054,-0.0,-110.00000000000048,50.00000000000022,50.00000000000022,90.0000000000004,100.00000000000044,70.00000000000031,-0.0,-30.000000000000135,-40.00000000000018
100.00000000000044,110.00000000000048,-0.0,-100.00000000000044,40.00000000000018,50.00000000000022,100.00000000000044,100.00000000000044,70.00000000000031,-0.0,-30.000000000000135,-40.00000000000018
90.0000000000004,100.00000000000044,-0.0,-90.0000000000004,40.00000000000018,40.00000000000018,100.00000000000044,110.00000000000048,80.00000000000036,-0.0,-20.00000000000009,-40.00000000000018
80.00000000000036,90.0000000000004,-0.0,-80.00000000000036,40.00000000000018,30.000000000000135,90.0000000000004,120.00000000000054,90.0000000000004,-0.0,-20.00000000000009,-40.00000000000018
80.00000000000036,80.00000000000036,-0.0,-80.00000000000036,40.00000000000018,30.000000000000135,90.0000000000004,120.00000000000054,100.00000000000044,10.000000000000044,-10.000000000000044,-40.00000000000018
70.00000000000031,70.00000000000031,-10.000000000000044,-70.00000000000031,40.00000000000018,20.00000000000009,90.0000000000004,130.00000000000057,110.00000000000048,10.000000000000044,-10.000000000000044,-40.00000000000018
70.00000000000031,60.00000000000027,-10.000000000000044,-60.00000000000027,40.00000000000018,10.000000000000044,90.0000000000004,140.00000000000063,120.00000000000054,20.00000000000009,-10.000000000000044,-30.000000000000135
70.00000000000031,50.00000000000022,-20.00000000000009,-60.00000000000027,40.00000000000018,-0.0,90.0000000000004,150.00000000000065,130.00000000000057,30.000000000000135,-0.0,-30.000000000000135
60.00000000000027,40.00000000000018,-20.00000000000009,-50.00000000000022,40.00000000000018,-0.0,90.0000000000004,160.0000000000007,150.00000000000065,50.00000000000022,-0.0,-20.00000000000009
60.00000000000027,40.00000000000018,-30.000000000000135,-50.00000000000022,40.00000000000018,-0.0,100.00000000000044,170.00000000000077,160.0000000000007,60.00000000000027,-0.0,-10.000000000000044
60.00000000000027,30.000000000000135,-30.000000000000135,-40.00000000000018,50.00000000000022,-0.0,100.00000000000044,180.0000000000008,180.0000000000008,70.00000000000031,10.000000000000044,-10.000000000000044
60.00000000000027,20.00000000000009,-40.00000000000018,-40.00000000000018,50.00000000000022,-0.0,100.00000000000044,190.00000000000085,200.00000000000088,90.0000000000004,20.00000000000009,-0.0
50.00000000000022,10.000000000000044,-40.00000000000018,-30.000000000000135,40.00000000000018,-10.000000000000044,100.00000000000044,210.00000000000094,210.00000000000094,100.00000000000044,30.000000000000135,-0.0
40.00000000000018,10.000000000000044,-40.00000000000018,-20.00000000000009,40.00000000000018,-10.000000000000044,100.00000000000044,220.00000000000097,230.00000000000102,120.00000000000054,50.00000000000022,10.000000000000044
30.000000000000135,-0.0,-30.000000000000135,-10.000000000000044,30.000000000000135,-10.000000000000044,110.00000000000048,230.00000000000102,250.0000000000011,140.00000000000063,60.00000000000027,20.00000000000009
20.00000000000009,-0.0,-30.000000000000135,-10.000000000000044,20.00000000000009,-10.000000000000044,110.00000000000048,240.00000000000108,260.00000000000114,150.00000000000065,70.00000000000031,30.000000000000135
10.000000000000044,-0.0,-20.00000000000009,-0.0,10.000000000000044,-10.000000000000044,110.00000000000048,260.00000000000114,280.00000000000125,170.00000000000077,80.00000000000036,40.00000000000018
10.000000000000044,-0.0,-10.000000000000044,-0.0,10.000000000000044,-10.000000000000044,120.00000000000054,270.0000000000012,290.0000000000013,180.0000000000008,90.0000000000004,50.00000000000022
10.000000000000044,-0.0,-10.000000000000044,-0.0,10.000000000000044,-10.000000000000044,120.00000000000054,280.00000000000125,310.00000000000136,200.00000000000088,100.00000000000044,60.00000000000027
10.000000000000044,-0.0,-10.000000000000044,-0.0,10.000000000000044,-10.000000000000044,120.00000000000054,290.0000000000013,320.0000000000014,210.00000000000094,110.00000000000048,60.00000000000027
10.000000000000044,-0.0,-10.000000000000044,-0.0,10.000000000000044,-0.0,110.00000000000048,290.0000000000013,330.0000000000015,230.00000000000102,120.00000000000054,70.00000000000031
10.000000000000044,-0.0,-10.000000000000044,-10.000000000000044,10.000000000000044,-0.0,110.00000000000048,300.0000000000013,330.0000000000015,240.00000000000108,140.00000000000063,80.00000000000036
20.00000000000009,-0.0,-10.000000000000044,-10.000000000000044,10.000000000000044,-0.0,100.00000000000044,300.0000000000013,340.00000000000153,250.0000000000011,150.00000000000065,90.0000000000004
20.00000000000009,-0.0,-10.000000000000044,-10.000000000000044,10.000000000000044,-0.0,100.00000000000044,300.0000000000013,350.00000000000153,270.0000000000012,160.0000000000007,100.00000000000044
20.00000000000009,-0.0,-10.000000000000044,-10.000000000000044,10.000000000000044,-0.0,100.00000000000044,290.0000000000013,350.00000000000153,280.00000000000125,170.00000000000077,110.00000000000048
20.00000000000009,-0.0,-10.000000000000044,-10.000000000000044,10.000000000000044,-0.0,90.0000000000004,290.0000000000013,350.00000000000153,280.00000000000125,180.0000000000008,120.00000000000054
20.00000000000009,-0.0,-10.000000000000044,-10.000000000000044,10.000000000000044,-0.0,80.00000000000036,280.00000000000125,340.00000000000153,290.0000000000013,190.00000000000085,130.00000000000057
20.00000000000009,-0.0,-20.00000000000009,-10.000000000000044,10.000000000000044,-0.0,70.00000000000031,270.0000000000012,330.0000000000015,290.0000000000013,200.00000000000088,140.00000000000063
20.00000000000009,-0.0,-20.00000000000009,-0.0,20.00000000000009,-0.0,60.00000000000027,260.00000000000114,320.0000000000014,290.0000000000013,200.00000000000088,150.00000000000065
20.00000000000009,-0.0,-20.00000000000009,-10.000000000000044,20.00000000000009,-10.000000000000044,50.00000000000022,240.00000000000108,310.00000000000136,290.0000000000013,210.00000000000094,150.00000000000065
10.000000000000044,-0.0,-20.00000000000009,-0.0,10.000000000000044,-10.000000000000044,40.00000000000018,220.00000000000097,300.0000000000013,280.00000000000125,210.00000000000094,160.0000000000007
10.000000000000044,-0.0,-10.000000000000044,-0.0,10.000000000000044,-0.0,30.000000000000135,210.00000000000094,280.00000000000125,280.00000000000125,210.00000000000094,160.0000000000007
-0.0,-0.0,-10.000000000000044,-0.0,-0.0,-0.0,20.00000000000009,190.00000000000085,260.00000000000114,270.0000000000012,210.00000000000094,160.0000000000007
-0.0,-0.0,-10.000000000000044,-0.0,-0.0,-0.0,10.000000000000044,170.00000000000077,250.0000000000011,260.00000000000114,200.00000000000088,150.00000000000065
-0.0,-0.0,-0.0,-0.0,-0.0,-0.0,-0.0,150.00000000000065,230.00000000000102,250.0000000000011,200.00000000000088,150.00000000000065
-0.0,-0.0,-0.0,-0.0,-0.0,-0.0,-0.0,130.00000000000057,210.00000000000094,230.00000000000102,190.00000000000085,140.00000000000063
-0.0,-0.0,-0.0,-0.0,-0.0,-0.0,-0.0,120.00000000000054,190.00000000000085,220.00000000000097,180.0000000000008,130.00000000000057
-0.0,-0.0,-0.0,-0.0,-0.0,-0.0,-0.0,100.00000000000044,170.00000000000077,210.00000000000094,170.00000000000077,120.00000000000054
-0.0,-0.0,-0.0,-0.0,-0.0,-0.0,-10.000000000000044,90.0000000000004,150.00000000000065,190.00000000000085,150.00000000000065,110.00000000000048
-0.0,-0.0,-0.0,-0.0,-0.0,-0.0,-10.000000000000044,70.00000000000031,130.00000000000057,180.0000000000008,140.00000000000063,100.00000000000044
-0.0,-0.0,-0.0,-0.0,-0.0,-0.0,-20.00000000000009,60.00000000000027,120.00000000000054,170.00000000000077,130.00000000000057,100.00000000000044
-0.0,-0.0,-0.0,-0.0,-0.0,-0.0,-20.00000000000009,50.00000000000022,110.00000000000048,150.00000000000065,130.00000000000057,90.0000000000004
-0.0,-0.0,-0.0,-0.0,-0.0,-0.0,-20.00000000000009,40.00000000000018,100.00000000000044,140.00000000000063,120.00000000000054,80.00000000000036
-0.0,-0.0,-0.0,-0.0,-0.0,-0.0,-20.00000000000009,30.000000000000135,80.00000000000036,130.00000000000057,110.00000000000048,80.00000000000036
-0.0,-0.0,-10.000000000000044,-0.0,-0.0,-10.000000000000044,-10.000000000000044,20.00000000000009,70.00000000000031,120.00000000000054,100.00000000000044,70.00000000000031
-0.0,-10.000000000000044,-10.000000000000044,-0.0,-0.0,-10.000000000000044,-10.000000000000044,10.000000000000044,60.00000000000027,110.00000000000048,90.0000000000004,60.00000000000027
-0.0,-10.000000000000044,-10.000000000000044,-0.0,-0.0,-10.000000000000044,-10.000000000000044,10.000000000000044,50.00000000000022,100.00000000000044,80.00000000000036,50.00000000000022
-0.0,-10.000000000000044,-10.000000000000044,10.000000000000044,-0.0,-10.000000000000044,-10.000000000000044,-0.0,40.00000000000018,90.0000000000004,70.00000000000031,40.00000000000018
-10.000000000000044,-10.000000000000044,-10.000000000000044,10.000000000000044,-0.0,-10.000000000000044,-10.000000000000044,-0.0,30.000000000000135,80.00000000000036,60.00000000000027,40.00000000000018
-10.000000000000044,-20.00000000000009,-10.000000000000044,10.000000000000044,-0.0,-10.000000000000044,-10.000000000000044,-0.0,30.000000000000135,70.00000000000031,50.00000000000022,30.000000000000135
-10.000000000000044,-20.00000000000009,-0.0,10.000000000000044,-0.0,-10.000000000000044,-10.000000000000044,-0.0,30.000000000000135,60.00000000000027,50.00000000000022,20.00000000000009
-10.000000000000044,-20.00000000000009,-0.0,10.000000000000044,-0.0,-10.000000000000044,-10.000000000000044,-0.0,20.00000000000009,60.00000000000027,40.00000000000018,20.00000000000009
-10.000000000000044,-20.00000000000009,-10.000000000000044,10.000000000000044,-0.0,-10.000000000000044,-0.0,-0.0,20.00000000000009,60.00000000000027,40.00000000000018,20.00000000000009
-10.000000000000044,-20.00000000000009,-0.0,10.000000000000044,-0.0,-10.000000000000044,-0.0,-0.0,20.00000000000009,50.00000000000022,40.00000000000018,20.00000000000009
-0.0,-20.00000000000009,-0.0,10.000000000000044,-0.0,-10.000000000000044,-0.0,-0.0,20.00000000000009,50.00000000000022,40.00000000000018,20.00000000000009
-0.0,-10.000000000000044,-0.0,10.000000000000044,-0.0,-10.000000000000044,-0.0,-0.0,20.00000000000009,50.00000000000022,40.00000000000018,20.00000000000009
-0.0,-10.000000000000044,-0.0,10.000000000000044,-0.0,-10.000000000000044,-0.0,-0.0,20.00000000000009,50.00000000000022,30.000000000000135,20.00000000000009
-0.0,-10.000000000000044,-0.0,10.000000000000044,-0.0,-0.0,-0.0,-0.0,20.00000000000009,50.00000000000022,30.000000000000135,20.00000000000009
-0.0,-10.000000000000044,-0.0,-0.0,-0.0,-0.0,-0.0,-0.0,20.00000000000009,40.00000000000018,30.000000000000135,10.000000000000044
-0.0,-10.000000000000044,-0.0,-0.0,-0.0,-0.0,-0.0,-0.0,20.00000000000009,40.00000000000018,30.000000000000135,10.000000000000044
-0.0,-0.0,-0.0,-0.0,-0.0,-0.0,-0.0,-0.0,20.00000000000009,40.00000000000018,30.000000000000135,10.000000000000044
-10.000000000000044,-0.0,-0.0,-0.0,-0.0,-0.0,-0.0,-0.0,20.00000000000009,50.00000000000022,30.000000000000135,10.000000000000044
-10.000000000000044,-10.000000000000044,-0.0,10.000000000000044,-0.0,-0.0,-0.0,10.000000000000044,30.000000000000135,50.00000000000022,30.000000000000135,10.000000000000044
-10.000000000000044,-10.000000000000044,-0.0,10.000000000000044,-0.0,-0.0,-0.0,10.000000000000044,30.000000000000135,50.00000000000022,30.000000000000135,20.00000000000009
-20.00000000000009,-10.000000000000044,-0.0,10.000000000000044,-10.000000000000044,-0.0,-0.0,20.00000000000009,40.00000000000018,50.00000000000022,30.000000000000135,20.00000000000009
-20.00000000000009,-10.000000000000044,-0.0,20.00000000000009,-10.000000000000044,-10.000000000000044,-0.0,20.00000000000009,40.00000000000018,50.00000000000022,30.000000000000135,20.00000000000009
-20.00000000000009,-20.00000000000009,-0.0,20.00000000000009,-0.0,-10.000000000000044,10.000000000000044,30.000000000000135,40.00000000000018,50.00000000000022,30.000000000000135,20.00000000000009
-20.00000000000009,-20.00000000000009,-0.0,20.00000000000009,-0.0,-10.000000000000044,10.000000000000044,30.000000000000135,40.00000000000018,50.00000000000022,30.000000000000135,20.00000000000009
-10.000000000000044,-20.00000000000009,-0.0,10.000000000000044,-0.0,-10.000000000000044,10.000000000000044,30.000000000000135,40.00000000000018,50.00000000000022,30.000000000000135,10.000000000000044
-10.000000000000044,-20.00000000000009,-0.0,10.000000000000044,-0.0,-10.000000000000044,10.000000000000044,40.00000000000018,40.00000000000018,50.00000000000022,20.00000000000009,10.000000000000044
-10.000000000000044,-20.00000000000009,-0.0,10.000000000000044,-0.0,-10.000000000000044,10.000000000000044,40.00000000000018,40.00000000000018,40.00000000000018,20.00000000000009,-0.0
-0.0,-20.00000000000009,-0.0,10.000000000000044,-0.0,-10.000000000000044,10.000000000000044,40.00000000000018,40.00000000000018,40.00000000000018,20.00000000000009,-0.0
-0.0,-10.000000000000044,-10.000000000000044,10.000000000000044,-0.0,-10.000000000000044,-0.0,40.00000000000018,30.000000000000135,40.00000000000018,20.00000000000009,-0.0
-0.0,-10.000000000000044,-10.000000000000044,10.000000000000044,-0.0,-10.000000000000044,-0.0,40.00000000000018,30.000000000000135,40.00000000000018,10.000000000000044,-0.0
-0.0,-10.000000000000044,-10.000000000000044,10.000000000000044,-0.0,-10.000000000000044,10.000000000000044,40.00000000000018,30.000000000000135,30.000000000000135,10.000000000000044,-0.0
-0.0,-20.00000000000009,-10.000000000000044,10.000000000000044,-0.0,-10.000000000000044,10.000000000000044,40.00000000000018,30.000000000000135,30.000000000000135,10.000000000000044,-0.0
-0.0,-20.00000000000009,-10.000000000000044,10.000000000000044,-0.0,-20.00000000000009,10.000000000000044,40.00000000000018,30.000000000000135,30.000000000000135,10.000000000000044,-0.0
-10.000000000000044,-20.00000000000009,-10.000000000000044,10.000000000000044,-0.0,-20.00000000000009,10.000000000000044,40.00000000000018,20.00000000000009,30.000000000000135,10.000000000000044,-0.0
-10.000000000000044,-20.00000000000009,-10.000000000000044,10.000000000000044,-0.0,-20.00000000000009,10.000000000000044,40.00000000000018,20.00000000000009,30.000000000000135,10.000000000000044,-0.0
-10.000000000000044,-20.00000000000009,-10.000000000000044,10.000000000000044,-0.0,-10.000000000000044,10.000000000000044,40.00000000000018,20.00000000000009,20.00000000000009,10.000000000000044,-0.0
-10.000000000000044,-20.00000000000009,-0.0,10.000000000000044,-0.0,-10.000000000000044,10.000000000000044,40.00000000000018,10.000000000000044,20.00000000000009,-0.0,-0.0
-10.000000000000044,-20.00000000000009,-0.0,10.000000000000044,-0.0,-10.000000000000044,10.000000000000044,40.00000000000018,10.000000000000044,10.000000000000044,-0.0,-0.0
-0.0,-10.000000000000044,-0.0,-0.0,-0.0,-0.0,10.000000000000044,30.000000000000135,-0.0,10.000000000000044,-0.0,-0.0
-0.0,-10.000000000000044,-0.0,-0.0,-0.0,-0.0,-0.0,30.000000000000135,-0.0,-0.0,-0.0,-0.0
-0.0,-10.000000000000044,-0.0,-0.0,-0.0,-0.0,-0.0,30.000000000000135,-0.0,-0.0,-0.0,-0.0
-0.0,-10.000000000000044,-0.0,-0.0,-0.0,-0.0,-0.0,30.000000000000135,-0.0,-0.0,-0.0,-10.000000000000044
-0.0,-10.000000000000044,-10.000000000000044,-0.0,-0.0,-10.000000000000044,-0.0,20.00000000000009,-0.0,-0.0,-0.0,-10.000000000000044
-0.0,-10.000000000000044,-10.000000000000044,-0.0,-0.0,-10.000000000000044,-0.0,20.00000000000009,-0.0,-0.0,-0.0,-10.000000000000044
-0.0,-10.000000000000044,-20.00000000000009,-0.0,-0.0,-20.00000000000009,-0.0,20.00000000000009,-0.0,-0.0,-0.0,-10.000000000000044
-0.0,-20.00000000000009,-20.00000000000009,10.000000000000044,-0.0,-20.00000000000009,-0.0,20.00000000000009,-0.0,-0.0,-0.0,-10.000000000000044
-0.0,-20.00000000000009,-20.00000000000009,10.000000000000044,-0.0,-20.00000000000009,-0.0,20.00000000000009,-0.0,-0.0,-0.0,-10.000000000000044
-10.000000000000044,-20.00000000000009,-10.000000000000044,10.000000000000044,-0.0,-20.00000000000009,-0.0,10.000000000000044,-0.0,-0.0,-10.000000000000044,-20.00000000000009
-10.000000000000044,-20.00000000000009,-10.000000000000044,10.000000000000044,-0.0,-20.00000000000009,-0.0,10.000000000000044,-0.0,-0.0,-10.000000000000044,-20.00000000000009
-10.000000000000044,-20.00000000000009,-10.000000000000044,20.00000000000009,-0.0,-20.00000000000009,-0.0,10.000000000000044,-0.0,-0.0,-10.000000000000044,-20.00000000000009
-10.000000000000044,-20.00000000000009,-10.000000000000044,10.000000000000044,-0.0,-10.000000000000044,-0.0,10.000000000000044,-10.000000000000044,-0.0,-10.000000000000044,-10.000000000000044
-10.000000000000044,-20.00000000000009,-10.000000000000044,10.000000000000044,-0.0,-10.000000000000044,-0.0,-0.0,-10.000000000000044,-0.0,-10.000000000000044,-10.000000000000044
-10.000000000000044,-20.00000000000009,-10.000000000000044,10.000000000000044,-0.0,-10.000000000000044,-0.0,-0.0,-10.000000000000044,-10.000000000000044,-10.000000000000044,-10.000000000000044
-10.000000000000044,-20.00000000000009,-10.000000000000044,10.000000000000044,-0.0,-10.000000000000044,-0.0,-0.0,-10.000000000000044,-10.000000000000044,-10.000000000000044,-10.000000000000044
-10.000000000000044,-20.00000000000009,-10.000000000000044,10.000000000000044,-0.0,-10.000000000000044,-0.0,-0.0,-20.00000000000009,-10.000000000000044,-10.000000000000044,-10.000000000000044
-10.000000000000044,-20.00000000000009,-10.000000000000044,10.000000000000044,-0.0,-10.000000000000044,-0.0,-0.0,-20.00000000000009,-10.000000000000044,-10.000000000000044,-20.00000000000009
-0.0,-20.00000000000009,-10.000000000000044,10.000000000000044,-0.0,-20.00000000000009,-0.0,-0.0,-20.00000000000009,-10.000000000000044,-10.000000000000044,-20.00000000000009
-0.0,-20.00000000000009,-10.000000000000044,10.000000000000044,-0.0,-10.000000000000044,-0.0,-0.0,-20.00000000000009,-10.000000000000044,-10.000000000000044,-20.00000000000009
-0.0,-20.00000000000009,-10.000000000000044,-0.0,-0.0,-10.000000000000044,-0.0,-0.0,-20.00000000000009,-10.000000000000044,-20.00000000000009,-20.00000000000009
-0.0,-20.00000000000009,-10.000000000000044,-0.0,-0.0,-10.000000000000044,-0.0,-0.0,-20.00000000000009,-10.000000000000044,-20.00000000000009,-20.00000000000009
-0.0,-10.000000000000044,-10.000000000000044,-0.0,-0.0,-10.000000000000044,-0.0,-0.0,-20.00000000000009,-10.000000000000044,-10.000000000000044,-20.00000000000009
-0.0,-10.000000000000044,-10.000000000000044,-0.0,-0.0,-10.000000000000044,-0.0,-0.0,-20.00000000000009,-10.000000000000044,-10.000000000000044,-20.00000000000009
-0.0,-10.000000000000044,-10.000000000000044,-0.0,-0.0,-10.000000000000044,-0.0,-0.0,-20.00000000000009,-10.000000000000044,-10.000000000000044,-20.00000000000009
-0.0,-10.000000000000044,-10.000000000000044,-0.0,-0.0,-10.000000000000044,-0.0,-0.0,-20.00000000000009,-10.000000000000044,-10.000000000000044,-20.00000000000009
-0.0,-10.000000000000044,-0.0,-0.0,-0.0,-0.0,-0.0,-0.0,-20.00000000000009,-10.000000000000044,-10.000000000000044,-20.00000000000009
-0.0,-10.000000000000044,-0.0,-0.0,-0.0,-10.000000000000044,-0.0,-0.0,-20.00000000000009,-10.000000000000044,-10.000000000000044,-10.000000000000044
-0.0,-10.000000000000044,-0.0,-0.0,-0.0,-10.000000000000044,-0.0,-0.0,-20.00000000000009,-10.000000000000044,-20.00000000000009,-20.00000000000009
-0.0,-10.000000000000044,-0.0,-0.0,-0.0,-0.0,-0.0,-0.0,-20.00000000000009,-10.000000000000044,-20.00000000000009,-20.00000000000009
-0.0,-10.000000000000044,-0.0,-0.0,-0.0,-0.0,-0.0,-0.0,-20.00000000000009,-20.00000000000009,-20.00000000000009,-20.00000000000009
-0.0,-0.0,-0.0,-0.0,-0.0,-0.0,-0.0,-0.0,-20.00000000000009,-20.00000000000009,-20.00000000000009,-20.00000000000009
-0.0,-0.0,-0.0,-0.0,-0.0,-0.0,-0.0,-0.0,-30.000000000000135,-20.00000000000009,-20.00000000000009,-20.00000000000009
-0.0,-0.0,-0.0,-0.0,-0.0,-0.0,-0.0,-10.000000000000044,-30.000000000000135,-20.00000000000009,-20.00000000000009,-30.000000000000135
-0.0,-0.0,10.000000000000044,-0.0,-0.0,10.000000000000044,-0.0,-10.000000000000044,-30.000000000000135,-20.00000000000009,-20.00000000000009,-30.000000000000135
-0.0,10.000000000000044,10.000000000000044,-10.000000000000044,-0.0,10.000000000000044,-0.0,-10.000000000000044,-30.000000000000135,-20.00000000000009,-20.00000000000009,-30.000000000000135
-0.0,10.000000000000044,10.000000000000044,-10.000000000000044,-0.0,20.00000000000009,-0.0,-10.000000000000044,-30.000000000000135,-20.00000000000009,-20.00000000000009,-30.000000000000135
10.000000000000044,20.00000000000009,20.00000000000009,-20.00000000000009,-0.0,30.000000000000135,-0.0,-10.000000000000044,-20.00000000000009,-20.00000000000009,-20.00000000000009,-30.000000000000135
10.000000000000044,30.000000000000135,30.000000000000135,-30.000000000000135,-0.0,40.00000000000018,-0.0,-10.000000000000044,-20.00000000000009,-10.000000000000044,-20.00000000000009,-20.00000000000009
20.00000000000009,50.00000000000022,40.00000000000018,-40.00000000000018,-0.0,50.00000000000022,-0.0,-10.000000000000044,-20.00000000000009,-10.000000000000044,-10.000000000000044,-20.00000000000009
20.00000000000009,60.00000000000027,50.00000000000022,-50.00000000000022,-10.000000000000044,60.00000000000027,-0.0,-10.000000000000044,-20.00000000000009,-10.000000000000044,-10.000000000000044,-20.00000000000009
20.00000000000009,70.00000000000031,60.00000000000027,-60.00000000000027,-10.000000000000044,70.00000000000031,-0.0,-10.000000000000044,-20.00000000000009,-10.000000000000044,-10.000000000000044,-20.00000000000009
30.000000000000135,90.0000000000004,60.00000000000027,-70.00000000000031,-10.000000000000044,80.00000000000036,-0.0,-10.000000000000044,-20.00000000000009,-10.000000000000044,-10.000000000000044,-20.00000000000009
30.000000000000135,100.00000000000044,70.00000000000031,-70.00000000000031,-10.000000000000044,90.0000000000004,-0.0,-10.000000000000044,-20.00000000000009,-10.000000000000044,-10.000000000000044,-20.00000000000009
40.00000000000018,100.00000000000044,70.00000000000031,-80.00000000000036,-10.000000000000044,90.0000000000004,-0.0,-10.000000000000044,-20.00000000000009,-10.000000000000044,-10.000000000000044,-20.00000000000009
40.00000000000018,110.00000000000048,70.00000000000031,-80.00000000000036,-10.000000000000044,90.0000000000004,-0.0,-10.000000000000044,-30.000000000000135,-20.00000000000009,-10.000000000000044,-20.00000000000009
50.00000000000022,120.00000000000054,70.00000000000031,-90.0000000000004,-0.0,100.00000000000044,-0.0,-10.000000000000044,-30.000000000000135,-20.00000000000009,-10.000000000000044,-20.00000000000009
60.00000000000027,120.00000000000054,60.00000000000027,-90.0000000000004,-0.0,90.0000000000004,-0.0,-10.000000000000044,-30.000000000000135,-20.00000000000009,-10.000000000000044,-20.00000000000009
60.00000000000027,120.00000000000054,60.00000000000027,-90.0000000000004,-0.0,90.0000000000004,-0.0,-20.00000000000009,-30.000000000000135,-20.00000000000009,-10.000000000000044,-20.00000000000009
60.00000000000027,120.00000000000054,50.00000000000022,-90.0000000000004,-0.0,90.0000000000004,-0.0,-20.00000000000009,-30.000000000000135,-20.00000000000009,-10.000000000000044,-20.00000000000009
60.00000000000027,120.00000000000054,40.00000000000018,-90.0000000000004,-0.0,80.00000000000036,-0.0,-20.00000000000009,-30.000000000000135,-20.00000000000009,-10.000000000000044,-20.00000000000009
60.00000000000027,110.00000000000048,30.000000000000135,-80.00000000000036,-0.0,60.00000000000027,-0.0,-20.00000000000009,-30.000000000000135,-20.00000000000009,-10.000000000000044,-20.00000000000009
50.00000000000022,100.00000000000044,20.00000000000009,-70.00000000000031,-0.0,50.00000000000022,-0.0,-20.00000000000009,-30.000000000000135,-20.00000000000009,-10.000000000000044,-20.00000000000009
40.00000000000018,80.00000000000036,20.00000000000009,-60.00000000000027,-0.0,40.00000000000018,-0.0,-30.000000000000135,-30.000000000000135,-20.00000000000009,-10.000000000000044,-10.000000000000044
30.000000000000135,60.00000000000027,-0.0,-40.00000000000018,10.000000000000044,20.00000000000009,-0.0,-30.000000000000135,-30.000000000000135,-20.00000000000009,-10.000000000000044,-10.000000000000044
30.000000000000135,40.00000000000018,-0.0,-30.000000000000135,10.000000000000044,-0.0,-0.0,-30.000000000000135,-30.000000000000135,-20.00000000000009,-10.000000000000044,-10.000000000000044
20.00000000000009,20.00000000000009,-10.000000000000044,-20.00000000000009,10.000000000000044,-0.0,-0.0,-30.000000000000135,-20.00000000000009,-20.00000000000009,-10.000000000000044,-10.000000000000044
20.00000000000009,-0.0,-20.00000000000009,-10.000000000000044,20.00000000000009,-10.000000000000044,-0.0,-30.000000000000135,-20.00000000000009,-10.000000000000044,-10.000000000000044,-0.0
10.000000000000044,-0.0,-30.000000000000135,-0.0,20.00000000000009,-20.00000000000009,-0.0,-30.000000000000135,-20.00000000000009,-10.000000000000044,-0.0,-0.0
10.000000000000044,-10.000000000000044,-30.000000000000135,-0.0,20.00000000000009,-20.00000000000009,-0.0,-30.000000000000135,-10.000000000000044,-0.0,-0.0,-0.0
10.000000000000044,-20.00000000000009,-30.000000000000135,-0.0,20.00000000000009,-30.000000000000135,10.000000000000044,-30.000000000000135,-10.000000000000044,-0.0,-0.0,-0.0
-0.0,-20.00000000000009,-30.000000000000135,-0.0,10.000000000000044,-30.000000000000135,10.000000000000044,-20.00000000000009,-0.0,-0.0,-0.0,-0.0
-0.0,-20.00000000000009,-30.000000000000135,-0.0,10.000000000000044,-20.00000000000009,10.000000000000044,-20.00000000000009,-0.0,-0.0,10.000000000000044,10.000000000000044
-0.0,-20.00000000000009,-20.00000000000009,10.000000000000044,-0.0,-20.00000000000009,10.000000000000044,-20.00000000000009,-0.0,-0.0,10.000000000000044,20.00000000000009
-20.00000000000009,-20.00000000000009,-10.000000000000044,10.000000000000044,-0.0,-10.000000000000044,-0.0,-30.000000000000135,-0.0,10.000000000000044,20.00000000000009,20.00000000000009
-40.00000000000018,-20.00000000000009,10.000000000000044,20.00000000000009,-20.00000000000009,-0.0,-0.0,-40.00000000000018,-0.0,-0.0,20.00000000000009,30.000000000000135
-60.00000000000027,-20.00000000000009,30.000000000000135,40.00000000000018,-50.00000000000022,-0.0,-10.000000000000044,-50.00000000000022,-10.000000000000044,-0.0,20.00000000000009,30.000000000000135
-70.00000000000031,-20.00000000000009,60.00000000000027,30.000000000000135,-70.00000000000031,20.00000000000009,-20.00000000000009,-60.00000000000027,-20.00000000000009,-0.0,20.00000000000009,30.000000000000135
-50.00000000000022,-10.000000000000044,70.00000000000031,-0.0,-60.00000000000027,50.00000000000022,-30.000000000000135,-70.00000000000031,-20.00000000000009,-0.0,20.00000000000009,30.000000000000135
10.000000000000044,30.000000000000135,80.00000000000036,-60.00000000000027,-30.000000000000135,90.0000000000004,-40.00000000000018,-70.00000000000031,-20.00000000000009,-0.0,20.00000000000009,30.000000000000135
110.00000000000048,90.0000000000004,70.00000000000031,-160.0000000000007,20.00000000000009,130.00000000000057,-50.00000000000022,-80.00000000000036,-20.00000000000009,-0.0,20.00000000000009,30.000000000000135
250.0000000000011,190.00000000000085,50.00000000000022,-280.00000000000125,90.0000000000004,180.0000000000008,-50.00000000000022,-80.00000000000036,-20.00000000000009,-0.0,20.00000000000009,40.00000000000018
400.00000000000176,310.00000000000136,20.00000000000009,-420.0000000000019,180.0000000000008,230.00000000000102,-50.00000000000022,-80.00000000000036,-20.00000000000009,-0.0,20.00000000000009,40.00000000000018
540.0000000000024,430.00000000000193,-10.000000000000044,-540.0000000000024,270.0000000000012,270.0000000000012,-50.00000000000022,-80.00000000000036,-20.00000000000009,-0.0,20.00000000000009,30.000000000000135
660.000000000003,540.0000000000024,-50.00000000000022,-640.0000000000028,340.00000000000153,280.00000000000125,-50.00000000000022,-70.00000000000031,-20.00000000000009,-0.0,20.00000000000009,30.000000000000135
720.0000000000032,620.0000000000027,-80.00000000000036,-690.0000000000031,390.0000000000017,280.00000000000125,-40.00000000000018,-70.00000000000031,-20.00000000000009,-0.0,10.000000000000044,20.00000000000009
740.0000000000033,650.0000000000028,-120.00000000000054,-680.0000000000031,420.0000000000019,240.00000000000108,-30.000000000000135,-70.00000000000031,-20.00000000000009,-10.000000000000044,10.000000000000044,10.000000000000044
710.0000000000032,620.0000000000027,-150.00000000000065,-630.0000000000028,430.00000000000193,200.00000000000088,-30.000000000000135,-60.00000000000027,-30.000000000000135,-20.00000000000009,-0.0,10.000000000000044
640.0000000000028,560.0000000000025,-180.0000000000008,-550.0000000000024,410.0000000000018,140.00000000000063,-20.00000000000009,-60.00000000000027,-30.000000000000135,-20.00000000000009,-0.0,-0.0
550.0000000000024,460.00000000000205,-200.00000000000088,-450.000000000002,370.00000000000165,70.00000000000031,-20.00000000000009,-60.00000000000027,-30.000000000000135,-30.000000000000135,-0.0,-0.0
440.00000000000193,350.00000000000153,-210.00000000000094,-340.00000000000153,320.0000000000014,10.000000000000044,-20.00000000000009,-60.00000000000027,-40.00000000000018,-30.000000000000135,-10.000000000000044,-0.0
330.0000000000015,230.00000000000102,-210.00000000000094,-230.00000000000102,260.00000000000114,-40.00000000000018,-10.000000000000044,-60.00000000000027,-50.00000000000022,-30.000000000000135,-10.000000000000044,-10.000000000000044
230.00000000000102,120.00000000000054,-200.00000000000088,-140.00000000000063,210.00000000000094,-80.00000000000036,-10.000000000000044,-60.00000000000027,-60.00000000000027,-30.000000000000135,-20.00000000000009,-10.000000000000044
150.00000000000065,40.00000000000018,-180.0000000000008,-70.00000000000031,160.0000000000007,-100.00000000000044,-10.000000000000044,-60.00000000000027,-60.00000000000027,-30.000000000000135,-20.00000000000009,-10.000000000000044
90.0000000000004,-20.00000000000009,-160.0000000000007,-20.00000000000009,120.00000000000054,-110.00000000000048,-10.000000000000044,-60.00000000000027,-60.00000000000027,-30.000000000000135,-10.000000000000044,-10.000000000000044
50.00000000000022,-60.00000000000027,-140.00000000000063,-0.0,90.0000000000004,-110.00000000000048,-10.000000000000044,-70.00000000000031,-50.00000000000022,-20.00000000000009,-10.000000000000044,-10.000000000000044
20.00000000000009,-80.00000000000036,-130.00000000000057,20.00000000000009,70.00000000000031,-110.00000000000048,-10.000000000000044,-70.00000000000031,-40.00000000000018,-20.00000000000009,-10.000000000000044,-10.000000000000044
10.000000000000044,-90.0000000000004,-110.00000000000048,30.000000000000135,60.00000000000027,-100.00000000000044,-10.000000000000044,-50.00000000000022,-20.00000000000009,-20.00000000000009,-20.00000000000009,-30.000000000000135
-0.0,-90.0000000000004,-100.00000000000044,40.00000000000018,50.00000000000022,-100.00000000000044,10.000000000000044,-10.000000000000044,10.000000000000044,-20.00000000000009,-30.000000000000135,-40.00000000000018
-0.0,-100.00000000000044,-100.00000000000044,40.00000000000018,50.00000000000022,-100.00000000000044,60.00000000000027,30.000000000000135,60.00000000000027,10.000000000000044,-30.000000000000135,-50.00000000000022
-0.0,-100.00000000000044,-100.00000000000044,50.00000000000022,40.00000000000018,-100.00000000000044,120.00000000000054,90.0000000000004,160.0000000000007,80.00000000000036,-20.00000000000009,-50.00000000000022
-10.000000000000044,-100.00000000000044,-90.0000000000004,60.00000000000027,30.000000000000135,-100.00000000000044,160.0000000000007,170.00000000000077,290.0000000000013,210.00000000000094,20.00000000000009,-10.000000000000044
-20.00000000000009,-100.00000000000044,-90.0000000000004,60.00000000000027,20.00000000000009,-100.00000000000044,180.0000000000008,250.0000000000011,430.00000000000193,380.0000000000017,110.00000000000048,50.00000000000022
-30.000000000000135,-100.00000000000044,-80.00000000000036,60.00000000000027,20.00000000000009,-90.0000000000004,160.0000000000007,330.0000000000015,570.0000000000025,590.0000000000026,250.0000000000011,150.00000000000065
-30.000000000000135,-110.00000000000048,-70.00000000000031,70.00000000000031,10.000000000000044,-90.0000000000004,100.00000000000044,370.00000000000165,670.000000000003,780.0000000000034,430.00000000000193,290.0000000000013
-30.000000000000135,-100.00000000000044,-70.00000000000031,70.00000000000031,10.000000000000044,-80.00000000000036,-0.0,340.00000000000153,690.0000000000031,910.0000000000041,620.0000000000027,460.00000000000205
-30.000000000000135,-100.00000000000044,-60.00000000000027,60.00000000000027,10.000000000000044,-80.00000000000036,-130.00000000000057,250.0000000000011,610.0000000000027,950.0000000000042,780.0000000000034,610.0000000000027
-30.000000000000135,-100.00000000000044,-60.00000000000027,60.00000000000027,10.000000000000044,-80.00000000000036,-290.0000000000013,110.00000000000048,440.00000000000193,880.0000000000039,880.0000000000039,730.0000000000033
-30.000000000000135,-100.00000000000044,-60.00000000000027,60.00000000000027,10.000000000000044,-70.00000000000031,-440.00000000000193,-70.00000000000031,210.00000000000094,740.0000000000033,910.0000000000041,790.0000000000035
-30.000000000000135,-90.0000000000004,-50.00000000000022,60.00000000000027,-0.0,-70.00000000000031,-560.0000000000025,-260.00000000000114,-10.000000000000044,550.0000000000024,860.0000000000039,810.0000000000036
-30.000000000000135,-90.0000000000004,-50.00000000000022,60.00000000000027,-0.0,-70.00000000000031,-630.0000000000028,-440.00000000000193,-210.00000000000094,350.00000000000153,760.0000000000034,760.0000000000034
-30.000000000000135,-90.0000000000004,-50.00000000000022,60.00000000000027,-0.0,-60.00000000000027,-660.000000000003,-560.0000000000025,-370.00000000000165,150.00000000000065,630.0000000000028,670.000000000003
-30.000000000000135,-80.00000000000036,-40.00000000000018,60.00000000000027,-0.0,-60.00000000000027,-620.0000000000027,-620.0000000000027,-470.0000000000021,-10.000000000000044,470.0000000000021,550.0000000000024
-40.00000000000018,-80.00000000000036,-30.000000000000135,60.00000000000027,-0.0,-50.00000000000022,-560.0000000000025,-620.0000000000027,-520.0000000000023,-130.00000000000057,320.0000000000014,420.0000000000019
-30.000000000000135,-80.00000000000036,-30.000000000000135,50.00000000000022,-0.0,-50.00000000000022,-460.00000000000205,-570.0000000000025,-510.0000000000023,-210.00000000000094,180.0000000000008,300.0000000000013
-30.000000000000135,-70.00000000000031,-40.00000000000018,50.00000000000022,-0.0,-50.00000000000022,-350.00000000000153,-480.00000000000216,-450.000000000002,-240.00000000000108,70.00000000000031,180.0000000000008
-30.000000000000135,-70.00000000000031,-40.00000000000018,50.00000000000022,-0.0,-50.00000000000022,-240.00000000000108,-380.0000000000017,-360.0000000000016,-230.00000000000102,-0.0,100.00000000000044
-20.00000000000009,-70.00000000000031,-40.00000000000018,40.00000000000018,-0.0,-50.00000000000022,-140.00000000000063,-270.0000000000012,-270.0000000000012,-190.00000000000085,-40.00000000000018,40.00000000000018
-20.00000000000009,-70.00000000000031,-50.00000000000022,40.00000000000018,10.000000000000044,-50.00000000000022,-60.00000000000027,-170.00000000000077,-190.00000000000085,-150.00000000000065,-50.00000000000022,-0.0
-10.000000000000044,-70.00000000000031,-50.00000000000022,30.000000000000135,10.000000000000044,-60.00000000000027,-10.000000000000044,-90.0000000000004,-130.00000000000057,-120.00000000000054,-50.00000000000022,-0.0
-10.000000000000044,-60.00000000000027,-50.00000000000022,30.000000000000135,10.000000000000044,-50.00000000000022,20.00000000000009,-40.00000000000018,-100.00000000000044,-110.00000000000048,-50.00000000000022,-10.000000000000044
-10.000000000000044,-60.00000000000027,-50.00000000000022,30.000000000000135,10.000000000000044,-50.00000000000022,40.00000000000018,-10.000000000000044,-90.0000000000004,-100.00000000000044,-40.00000000000018,-20.00000000000009
-10.000000000000044,-60.00000000000027,-50.00000000000022,30.000000000000135,10.000000000000044,-50.00000000000022,50.00000000000022,-0.0,-90.0000000000004,-110.00000000000048,-50.00000000000022,-30.000000000000135
-10.000000000000044,-60.00000000000027,-40.00000000000018,30.000000000000135,10.000000000000044,-50.00000000000022,60.00000000000027,-0.0,-80.00000000000036,-120.00000000000054,-50.00000000000022,-40.00000000000018
-10.000000000000044,-60.00000000000027,-40.00000000000018,30.000000000000135,10.000000000000044,-40.00000000000018,60.00000000000027,-0.0,-80.00000000000036,-120.00000000000054,-60.00000000000027,-40.00000000000018
-10.000000000000044,-50.00000000000022,-30.000000000000135,20.00000000000009,-0.0,-30.000000000000135,70.00000000000031,10.000000000000044,-60.00000000000027,-120.00000000000054,-70.00000000000031,-50.00000000000022
-0.0,-40.00000000000018,-20.00000000000009,20.00000000000009,-0.0,-30.000000000000135,70.00000000000031,10.000000000000044,-60.00000000000027,-110.00000000000048,-70.00000000000031,-50.00000000000022
-0.0,-30.000000000000135,-20.00000000000009,10.000000000000044,-0.0,-20.00000000000009,70.00000000000031,20.00000000000009,-50.00000000000022,-110.00000000000048,-70.00000000000031,-50.00000000000022
-0.0,-30.000000000000135,-10.000000000000044,10.000000000000044,-0.0,-20.00000000000009,70.00000000000031,30.000000000000135,-40.00000000000018,-110.00000000000048,-70.00000000000031,-50.00000000000022
-0.0,-20.00000000000009,-10.000000000000044,-0.0,-0.0,-10.000000000000044,80.00000000000036,30.000000000000135,-40.00000000000018,-110.00000000000048,-70.00000000000031,-50.00000000000022
-0.0,-10.000000000000044,-0.0,-0.0,-0.0,-0.0,70.00000000000031,40.00000000000018,-30.000000000000135,-100.00000000000044,-80.00000000000036,-50.00000000000022
-0.0,-0.0,-0.0,-0.0,-0.0,-0.0,70.00000000000031,40.00000000000018,-30.000000000000135,-100.00000000000044,-80.00000000000036,-50.00000000000022
-0.0,-0.0,-0.0,-0.0,-0.0,-0.0,70.00000000000031,50.00000000000022,-20.00000000000009,-100.00000000000044,-80.00000000000036,-60.00000000000027
10.000000000000044,-0.0,-0.0,-10.000000000000044,-0.0,-0.0,70.00000000000031,50.00000000000022,-20.00000000000009,-100.00000000000044,-80.00000000000036,-60.00000000000027
20.00000000000009,-0.0,-0.0,-20.00000000000009,10.000000000000044,-0.0,70.00000000000031,60.00000000000027,-10.000000000000044,-90.0000000000004,-80.00000000000036,-60.00000000000027
30.000000000000135,10.000000000000044,-0.0,-30.000000000000135,10.000000000000044,10.000000000000044,70.00000000000031,60.00000000000027,-0.0,-90.0000000000004,-80.00000000000036,-60.00000000000027
30.000000000000135,20.00000000000009,-0.0,-30.000000000000135,10.000000000000044,10.000000000000044,70.00000000000031,60.00000000000027,-0.0,-80.00000000000036,-80.00000000000036,-60.00000000000027
40.00000000000018,30.000000000000135,-0.0,-40.00000000000018,10.000000000000044,20.00000000000009,70.00000000000031,70.00000000000031,-0.0,-80.00000000000036,-70.00000000000031,-70.00000000000031
40.00000000000018,40.00000000000018,-0.0,-50.00000000000022,10.000000000000044,30.000000000000135,70.00000000000031,70.00000000000031,-0.0,-80.00000000000036,-70.00000000000031,-70.00000000000031
40.00000000000018,50.00000000000022,10.000000000000044,-60.00000000000027,10.000000000000044,30.000000000000135,70.00000000000031,70.00000000000031,-0.0,-70.00000000000031,-70.00000000000031,-70.00000000000031
50.00000000000022,60.00000000000027,20.00000000000009,-60.00000000000027,10.000000000000044,40.00000000000018,70.00000000000031,80.00000000000036,10.000000000000044,-70.00000000000031,-70.00000000000031,-70.00000000000031
50.00000000000022,70.00000000000031,20.00000000000009,-70.00000000000031,10.000000000000044,50.00000000000022,70.00000000000031,80.00000000000036,10.000000000000044,-70.00000000000031,-60.00000000000027,-70.00000000000031
60.00000000000027,80.00000000000036,30.000000000000135,-80.00000000000036,10.000000000000044,60.00000000000027,60.00000000000027,90.0000000000004,20.00000000000009,-60.00000000000027,-60.00000000000027,-70.00000000000031
60.00000000000027,100.00000000000044,40.00000000000018,-90.0000000000004,10.000000000000044,70.00000000000031,60.00000000000027,90.0000000000004,30.000000000000135,-50.00000000000022,-60.00000000000027,-70.00000000000031
70.00000000000031,110.00000000000048,40.00000000000018,-100.00000000000044,10.000000000000044,80.00000000000036,70.00000000000031,100.00000000000044,40.00000000000018,-50.00000000000022,-50.00000000000022,-70.00000000000031
80.00000000000036,120.00000000000054,40.00000000000018,-100.00000000000044,10.000000000000044,80.00000000000036,70.00000000000031,110.00000000000048,50.00000000000022,-40.00000000000018,-50.00000000000022,-60.00000000000027
90.0000000000004,120.00000000000054,40.00000000000018,-110.00000000000048,20.00000000000009,90.0000000000004,70.00000000000031,120.00000000000054,60.00000000000027,-30.000000000000135,-40.00000000000018,-60.00000000000027
100.00000000000044,130.00000000000057,40.00000000000018,-120.00000000000054,20.00000000000009,90.0000000000004,70.00000000000031,130.00000000000057,70.00000000000031,-20.00000000000009,-30.000000000000135,-50.00000000000022
100.00000000000044,140.00000000000063,30.000000000000135,-120.00000000000054,30.000000000000135,90.0000000000004,70.00000000000031,140.00000000000063,90.0000000000004,-10.000000000000044,-30.000000000000135,-40.00000000000018
110.00000000000048,140.00000000000063,30.000000000000135,-130.00000000000057,30.000000000000135,90.0000000000004,80.00000000000036,150.00000000000065,100.00000000000044,-0.0,-20.00000000000009,-40.00000000000018
110.00000000000048,150.00000000000065,30.000000000000135,-130.00000000000057,40.00000000000018,90.0000000000004,80.00000000000036,160.0000000000007,110.00000000000048,-0.0,-10.000000000000044,-30.000000000000135
120.00000000000054,150.00000000000065,30.000000000000135,-130.00000000000057,40.00000000000018,90.0000000000004,80.00000000000036,170.00000000000077,130.00000000000057,10.000000000000044,-0.0,-20.00000000000009
120.00000000000054,150.00000000000065,20.00000000000009,-130.00000000000057,40.00000000000018,90.0000000000004,80.00000000000036,180.0000000000008,140.00000000000063,30.000000000000135,-0.0,-20.00000000000009
120.00000000000054,150.00000000000065,20.00000000000009,-130.00000000000057,40.00000000000018,80.00000000000036,90.0000000000004,190.00000000000085,160.0000000000007,40.00000000000018,-0.0,-10.000000000000044
120.00000000000054,150.00000000000065,20.00000000000009,-130.00000000000057,40.00000000000018,80.00000000000036,90.0000000000004,210.00000000000094,180.0000000000008,50.00000000000022,10.000000000000044,-0.0
110.00000000000048,140.00000000000063,10.000000000000044,-120.00000000000054,40.00000000000018,70.00000000000031,90.0000000000004,220.00000000000097,200.00000000000088,70.00000000000031,20.00000000000009,-0.0
100.00000000000044,130.00000000000057,10.000000000000044,-120.00000000000054,40.00000000000018,70.00000000000031,100.00000000000044,230.00000000000102,210.00000000000094,90.0000000000004,30.000000000000135,-0.0
100.00000000000044,120.00000000000054,10.000000000000044,-110.00000000000048,40.00000000000018,60.00000000000027,100.00000000000044,240.00000000000108,230.00000000000102,100.00000000000044,40.00000000000018,10.000000000000044
90.0000000000004,110.00000000000048,10.000000000000044,-100.00000000000044,40.00000000000018,60.00000000000027,100.00000000000044,260.00000000000114,250.0000000000011,120.00000000000054,50.00000000000022,20.00000000000009
90.0000000000004,100.00000000000044,-0.0,-90.0000000000004,30.000000000000135,50.00000000000022,110.00000000000048,270.0000000000012,270.0000000000012,130.00000000000057,60.00000000000027,30.000000000000135
80.00000000000036,100.00000000000044,-0.0,-90.0000000000004,30.000000000000135,40.00000000000018,110.00000000000048,280.00000000000125,280.00000000000125,150.00000000000065,80.00000000000036,40.00000000000018
70.00000000000031,80.00000000000036,-0.0,-80.00000000000036,30.000000000000135,30.000000000000135,110.00000000000048,290.0000000000013,300.0000000000013,160.0000000000007,90.0000000000004,50.00000000000022
70.00000000000031,70.00000000000031,-0.0,-70.00000000000031,30.000000000000135,20.00000000000009,110.00000000000048,300.0000000000013,310.00000000000136,180.0000000000008,100.00000000000044,60.00000000000027
70.00000000000031,60.00000000000027,-10.000000000000044,-60.00000000000027,40.00000000000018,10.000000000000044,110.00000000000048,310.00000000000136,320.0000000000014,190.00000000000085,110.00000000000048,70.00000000000031
60.00000000000027,50.00000000000022,-20.00000000000009,-50.00000000000022,40.00000000000018,-0.0,110.00000000000048,310.00000000000136,330.0000000000015,200.00000000000088,120.00000000000054,80.00000000000036
60.00000000000027,40.00000000000018,-20.00000000000009,-50.00000000000022,40.00000000000018,-0.0,100.00000000000044,310.00000000000136,330.0000000000015,210.00000000000094,130.00000000000057,90.0000000000004
60.00000000000027,30.000000000000135,-30.000000000000135,-40.00000000000018,40.00000000000018,-0.0,100.00000000000044,310.00000000000136,340.00000000000153,220.00000000000097,140.00000000000063,100.00000000000044
50.00000000000022,20.00000000000009,-30.000000000000135,-40.00000000000018,40.00000000000018,-0.0,90.0000000000004,310.00000000000136,340.00000000000153,230.00000000000102,160.0000000000007,100.00000000000044
50.00000000000022,20.00000000000009,-30.000000000000135,-30.000000000000135,40.00000000000018,-0.0,90.0000000000004,310.00000000000136,340.00000000000153,230.00000000000102,170.00000000000077,120.00000000000054
40.00000000000018,10.000000000000044,-30.000000000000135,-20.00000000000009,30.000000000000135,-0.0,80.00000000000036,300.0000000000013,340.00000000000153,240.00000000000108,170.00000000000077,130.00000000000057
30.000000000000135,-0.0,-20.00000000000009,-20.00000000000009,20.00000000000009,-0.0,70.00000000000031,290.0000000000013,330.0000000000015,250.0000000000011,180.0000000000008,130.00000000000057
20.00000000000009,-0.0,-20.00000000000009,-10.000000000000044,20.00000000000009,-0.0,60.00000000000027,280.00000000000125,320.0000000000014,250.0000000000011,190.00000000000085,140.00000000000063
10.000000000000044,-0.0,-10.000000000000044,-10.000000000000044,10.000000000000044,-0.0,50.00000000000022,270.0000000000012,310.00000000000136,250.0000000000011,190.00000000000085,150.00000000000065
10.000000000000044,-0.0,-10.000000000000044,-0.0,10.000000000000044,-0.0,50.00000000000022,260.00000000000114,300.0000000000013,250.0000000000011,200.00000000000088,150.00000000000065
10.000000000000044,-0.0,-10.000000000000044,-0.0,10.000000000000044,-0.0,40.00000000000018,240.00000000000108,290.0000000000013,250.0000000000011,200.00000000000088,160.0000000000007
10.000000000000044,-0.0,-10.000000000000044,-0.0,10.000000000000044,-0.0,30.000000000000135,220.00000000000097,280.00000000000125,240.00000000000108,200.00000000000088,160.0000000000007
10.000000000000044,-0.0,-10.000000000000044,-0.0,10.000000000000044,-0.0,20.00000000000009,210.00000000000094,260.00000000000114,230.00000000000102,200.00000000000088,160.0000000000007
-0.0,-0.0,-10.000000000000044,-0.0,-0.0,-0.0,10.000000000000044,190.00000000000085,240.00000000000108,220.00000000000097,190.00000000000085,150.00000000000065
-0.0,-0.0,-10.000000000000044,-0.0,10.000000000000044,-0.0,-0.0,170.00000000000077,230.00000000000102,210.00000000000094,180.0000000000008,150.00000000000065
10.000000000000044,-0.0,-10.000000000000044,-0.0,10.000000000000044,-0.0,-0.0,160.0000000000007,210.00000000000094,200.00000000000088,170.00000000000077,140.00000000000063
10.000000000000044,-0.0,-10.000000000000044,-0.0,10.000000000000044,-0.0,-0.0,140.00000000000063,190.00000000000085,190.00000000000085,160.0000000000007,130.00000000000057
10.000000000000044,-0.0,-20.00000000000009,-0.0,10.000000000000044,-0.0,-10.000000000000044,120.00000000000054,180.0000000000008,180.0000000000008,150.00000000000065,120.00000000000054
20.00000000000009,-0.0,-20.00000000000009,-10.000000000000044,20.00000000000009,-10.000000000000044,-20.00000000000009,110.00000000000048,160.0000000000007,170.00000000000077,140.00000000000063,110.00000000000048
20.00000000000009,-0.0,-20.00000000000009,-0.0,20.00000000000009,-0.0,-20.00000000000009,100.00000000000044,150.00000000000065,150.00000000000065,130.00000000000057,100.00000000000044
10.000000000000044,-0.0,-20.00000000000009,-0.0,10.000000000000044,-0.0,-20.00000000000009,90.0000000000004,130.00000000000057,140.00000000000063,120.00000000000054,90.0000000000004
10.000000000000044,-0.0,-10.000000000000044,-0.0,10.000000000000044,-0.0,-30.000000000000135,70.00000000000031,120.00000000000054,130.00000000000057,110.00000000000048,80.00000000000036
-0.0,-0.0,-0.0,-0.0,-0.0,-0.0,-30.000000000000135,70.00000000000031,110.00000000000048,120.00000000000054,100.00000000000044,70.00000000000031
-0.0,-0.0,-0.0,-0.0,-0.0,-0.0,-30.000000000000135,60.00000000000027,100.00000000000044,110.00000000000048,90.0000000000004,70.00000000000031
-0.0,-0.0,-0.0,-0.0,-0.0,-0.0,-20.00000000000009,50.00000000000022,90.0000000000004,100.00000000000044,90.0000000000004,60.00000000000027
-0.0,-0.0,-0.0,-0.0,-0.0,-0.0,-20.00000000000009,50.00000000000022,90.0000000000004,100.00000000000044,80.00000000000036,60.00000000000027
-0.0,-0.0,-0.0,-0.0,-0.0,-0.0,-20.00000000000009,50.00000000000022,80.00000000000036,90.0000000000004,70.00000000000031,50.00000000000022
-0.0,-0.0,10.000000000000044,-0.0,-0.0,-0.0,-10.000000000000044,40.00000000000018,80.00000000000036,80.00000000000036,70.00000000000031,50.00000000000022
-0.0,-0.0,-0.0,-0.0,-0.0,-0.0,-10.000000000000044,40.00000000000018,80.00000000000036,80.00000000000036,60.00000000000027,50.00000000000022
-0.0,-0.0,-0.0,-0.0,-0.0,-0.0,-0.0,40.00000000000018,70.00000000000031,70.00000000000031,60.00000000000027,40.00000000000018
-0.0,-0.0,-0.0,-0.0,-0.0,-0.0,-0.0,40.00000000000018,70.00000000000031,60.00000000000027,50.00000000000022,30.000000000000135
-0.0,-0.0,-0.0,-0.0,-0.0,-0.0,-0.0,40.00000000000018,70.00000000000031,60.00000000000027,40.00000000000018,30.000000000000135
-0.0,-0.0,-0.0,-0.0,-0.0,-0.0,-0.0,40.00000000000018,60.00000000000027,50.00000000000022,30.000000000000135,20.00000000000009
-0.0,-0.0,-0.0,-0.0,-0.0,-0.0,-0.0,30.000000000000135,60.00000000000027,50.00000000000022,30.000000000000135,10.000000000000044
-0.0,-0.0,-0.0,-0.0,-0.0,-0.0,-0.0,30.000000000000135,60.00000000000027,50.00000000000022,20.00000000000009,10.000000000000044
-0.0,-0.0,-0.0,-0.0,-0.0,-0.0,-0.0,30.000000000000135,60.00000000000027,50.00000000000022,20.00000000000009,10.000000000000044
-0.0,-0.0,-0.0,-0.0,-0.0,-0.0,-0.0,30.000000000000135,60.00000000000027,50.00000000000022,20.00000000000009,10.000000000000044
10.000000000000044,-0.0,-10.000000000000044,-0.0,10.000000000000044,-0.0,-0.0,40.00000000000018,60.00000000000027,50.00000000000022,20.00000000000009,10.000000000000044
-0.0,-0.0,-10.000000000000044,-0.0,10.000000000000044,-0.0,-0.0,40.00000000000018,70.00000000000031,50.00000000000022,20.00000000000009,10.000000000000044
-0.0,-0.0,-10.000000000000044,-0.0,-0.0,-0.0,-0.0,40.00000000000018,70.00000000000031,50.00000000000022,20.00000000000009,10.000000000000044
-0.0,-0.0,-10.000000000000044,-0.0,-0.0,-10.000000000000044,-0.0,40.00000000000018,70.00000000000031,50.00000000000022,20.00000000000009,10.000000000000044
-0.0,-10.000000000000044,-10.000000000000044,-0.0,-0.0,-10.000000000000044,-0.0,50.00000000000022,70.00000000000031,50.00000000000022,20.00000000000009,10.000000000000044
-0.0,-10.000000000000044,-10.000000000000044,-0.0,-0.0,-10.000000000000044,-0.0,50.00000000000022,80.00000000000036,50.00000000000022,20.00000000000009,10.000000000000044
-0.0,-10.000000000000044,-0.0,-0.0,-0.0,-0.0,-0.0,50.00000000000022,80.00000000000036,60.00000000000027,20.00000000000009,10.000000000000044
-0.0,-10.000000000000044,-0.0,-0.0,-0.0,-0.0,10.000000000000044,60.00000000000027,80.00000000000036,60.00000000000027,20.00000000000009,10.000000000000044
-0.0,-0.0,-0.0,-0.0,-0.0,-0.0,10.000000000000044,60.00000000000027,90.0000000000004,60.00000000000027,20.00000000000009,10.000000000000044
-0.0,-0.0,-0.0,-0.0,-0.0,-0.0,10.000000000000044,60.00000000000027,90.0000000000004,60.00000000000027,20.00000000000009,10.000000000000044
-0.0,-0.0,-0.0,-0.0,-0.0,-0.0,10.000000000000044,60.00000000000027,90.0000000000004,60.00000000000027,20.00000000000009,10.000000000000044
-0.0,-0.0,-0.0,-0.0,-0.0,-0.0,10.000000000000044,60.00000000000027,80.00000000000036,60.00000000000027,20.00000000000009,10.000000000000044
-0.0,-0.0,-0.0,-0.0,-0.0,-0.0,10.000000000000044,60.00000000000027,80.00000000000036,50.00000000000022,20.00000000000009,10.000000000000044
-0.0,-0.0,-0.0,-0.0,-0.0,-0.0,10.000000000000044,60.00000000000027,80.00000000000036,50.00000000000022,10.000000000000044,10.000000000000044
-0.0,-0.0,-0.0,-0.0,-0.0,-0.0,10.000000000000044,60.00000000000027,70.00000000000031,50.00000000000022,10.000000000000044,-0.0
-0.0,-0.0,-0.0,-0.0,-0.0,-0.0,10.000000000000044,60.00000000000027,70.00000000000031,40.00000000000018,10.000000000000044,-0.0
-0.0,-0.0,-10.000000000000044,-0.0,-0.0,-10.000000000000044,10.000000000000044,50.00000000000022,70.00000000000031,40.00000000000018,-0.0,-0.0
-0.0,-10.000000000000044,-10.000000000000044,-0.0,-0.0,-10.000000000000044,10.000000000000044,50.00000000000022,60.00000000000027,30.000000000000135,-0.0,-0.0
-0.0,-10.000000000000044,-0.0,-0.0,-0.0,-10.000000000000044,10.000000000000044,50.00000000000022,60.00000000000027,30.000000000000135,-0.0,-0.0
-0.0,-10.000000000000044,-0.0,-0.0,-0.0,-10.000000000000044,10.000000000000044,40.00000000000018,60.00000000000027,30.000000000000135,-0.0,-0.0
-0.0,-10.000000000000044,-0.0,-0.0,-0.0,-0.0,10.000000000000044,40.00000000000018,50.00000000000022,30.000000000000135,-0.0,-0.0
-0.0,-10.000000000000044,-0.0,-0.0,-0.0,-0.0,10.000000000000044,40.00000000000018,50.00000000000022,30.000000000000135,-0.0,-0.0
-0.0,-0.0,-0.0,-0.0,-0.0,-0.0,10.000000000000044,40.00000000000018,50.00000000000022,30.000000000000135,-0.0,-0.0
-0.0,-10.000000000000044,-0.0,-0.0,-0.0,-0.0,10.000000000000044,30.000000000000135,40.00000000000018,20.00000000000009,-0.0,-0.0
-0.0,-0.0,-0.0,-0.0,-0.0,-0.0,10.000000000000044,30.000000000000135,40.00000000000018,20.00000000000009,-0.0,-0.0
-0.0,-0.0,-0.0,-0.0,-0.0,-0.0,-0.0,30.000000000000135,30.000000000000135,10.000000000000044,-0.0,-0.0
-0.0,-0.0,-0.0,-0.0,-0.0,-0.0,-0.0,20.00000000000009,30.000000000000135,10.000000000000044,-0.0,-0.0
-0.0,-0.0,-0.0,-0.0,-0.0,-0.0,-0.0,20.00000000000009,20.00000000000009,10.000000000000044,-0.0,-10.000000000000044
-0.0,-0.0,-0.0,-0.0,-0.0,-0.0,-0.0,20.00000000000009,20.00000000000009,-0.0,-10.000000000000044,-10.000000000000044
-0.0,-0.0,-0.0,-0.0,-0.0,-0.0,-0.0,10.000000000000044,20.00000000000009,-0.0,-10.000000000000044,-10.000000000000044
-0.0,-0.0,-0.0,-0.0,-0.0,-0.0,-0.0,10.000000000000044,20.00000000000009,-0.0,-10.000000000000044,-10.000000000000044
-0.0,-0.0,-0.0,-0.0,-0.0,-0.0,-0.0,10.000000000000044,10.000000000000044,-0.0,-10.000000000000044,-10.000000000000044
-0.0,-0.0,-0.0,-0.0,-0.0,-0.0,-0.0,-0.0,10.000000000000044,-0.0,-10.000000000000044,-10.000000000000044
-0.0,-0.0,-0.0,-0.0,-0.0,-0.0,-0.0,-0.0,10.000000000000044,-0.0,-10.000000000000044,-10.000000000000044
-0.0,-0.0,-0.0,-0.0,-0.0,-0.0,-0.0,-0.0,10.000000000000044,-0.0,-10.000000000000044,-10.000000000000044
-10.000000000000044,-10.000000000000044,-0.0,10.000000000000044,-0.0,-10.000000000000044,-0.0,-0.0,-0.0,-0.0,-10.000000000000044,-10.000000000000044
-0.0,-10.000000000000044,-10.000000000000044,10.000000000000044,-0.0,-10.000000000000044,-0.0,-0.0,-0.0,-0.0,-10.000000000000044,-10.000000000000044
-0.0,-20.00000000000009,-10.000000000000044,10.000000000000044,-0.0,-10.000000000000044,-0.0,-0.0,-0.0,-0.0,-10.000000000000044,-10.000000000000044
-0.0,-20.00000000000009,-10.000000000000044,10.000000000000044,-0.0,-10.000000000000044,-0.0,-0.0,-0.0,-0.0,-20.00000000000009,-20.00000000000009
-0.0,-20.00000000000009,-10.000000000000044,-0.0,-0.0,-10.000000000000044,-0.0,-0.0,-0.0,-0.0,-20.00000000000009,-20.00000000000009
-0.0,-10.000000000000044,-10.000000000000044,-0.0,-0.0,-10.000000000000044,-0.0,-0.0,-0.0,-0.0,-20.00000000000009,-20.00000000000009
-0.0,-10.000000000000044,-0.0,-0.0,-0.0,-10.000000000000044,-0.0,-0.0,-0.0,-0.0,-30.000000000000135,-20.00000000000009
-0.0,-10.000000000000044,-0.0,-0.0,-0.0,-0.0,-0.0,-0.0,-0.0,-0.0,-30.000000000000135,-20.00000000000009
-0.0,-10.000000000000044,-0.0,10.000000000000044,-0.0,-0.0,-0.0,-0.0,-0.0,-0.0,-30.000000000000135,-20.00000000000009
-0.0,-10.000000000000044,-0.0,10.000000000000044,-0.0,-0.0,-0.0,-10.000000000000044,-0.0,-0.0,-30.000000000000135,-20.00000000000009
-0.0,-10.000000000000044,-0.0,-0.0,-0.0,-0.0,-0.0,-10.000000000000044,-0.0,-0.0,-30.000000000000135,-20.00000000000009
-0.0,-10.000000000000044,-0.0,-0.0,-0.0,-0.0,-0.0,-10.000000000000044,-0.0,-0.0,-20.00000000000009,-20.00000000000009
-0.0,-10.000000000000044,-0.0,-0.0,-0.0,-0.0,-0.0,-10.000000000000044,-0.0,-0.0,-20.00000000000009,-20.00000000000009
-10.000000000000044,-0.0,-0.0,-0.0,-0.0,-0.0,-0.0,-10.000000000000044,-0.0,-0.0,-20.00000000000009,-20.00000000000009
-10.000000000000044,-0.0,-0.0,-0.0,-10.000000000000044,-0.0,-0.0,-10.000000000000044,-0.0,-0.0,-20.00000000000009,-10.000000000000044
-10.000000000000044,-0.0,10.000000000000044,-0.0,-10.000000000000044,-0.0,-0.0,-0.0,-0.0,-0.0,-20.00000000000009,-10.000000000000044
-10.000000000000044,-0.0,10.000000000000044,-0.0,-10.000000000000044,-0.0,-0.0,-0.0,-0.0,-0.0,-20.00000000000009,-10.000000000000044
-10.000000000000044,-0.0,-0.0,-0.0,-10.000000000000044,-0.0,-0.0,-0.0,-0.0,-0.0,-20.00000000000009,-10.000000000000044
-10.000000000000044,-0.0,-0.0,10.000000000000044,-10.000000000000044,-0.0,-0.0,-10.000000000000044,-0.0,-10.000000000000044,-20.00000000000009,-20.00000000000009
-10.000000000000044,-0.0,-0.0,10.000000000000044,-0.0,-0.0,-0.0,-10.000000000000044,-0.0,-10.000000000000044,-20.00000000000009,-20.00000000000009
-10.000000000000044,-10.000000000000044,-0.0,10.000000000000044,-0.0,-0.0,-0.0,-10.000000000000044,-0.0,-10.000000000000044,-20.00000000000009,-20.00000000000009
-10.000000000000044,-10.000000000000044,-0.0,10.000000000000044,-0.0,-0.0,-0.0,-10.000000000000044,-10.000000000000044,-10.000000000000044,-20.00000000000009,-20.00000000000009
-10.000000000000044,-10.000000000000044,-0.0,10.000000000000044,-0.0,-0.0,-0.0,-10.000000000000044,-10.000000000000044,-10.000000000000044,-20.00000000000009,-20.00000000000009
-10.000000000000044,-10.000000000000044,-0.0,10.000000000000044,-0.0,-0.0,-0.0,-10.000000000000044,-10.000000000000044,-20.00000000000009,-20.00000000000009,-20.00000000000009
-0.0,-10.000000000000044,-0.0,-0.0,-0.0,-0.0,-0.0,-10.000000000000044,-10.000000000000044,-20.00000000000009,-30.000000000000135,-20.00000000000009
-0.0,-10.000000000000044,-0.0,-0.0,-0.0,-0.0,-0.0,-10.000000000000044,-10.000000000000044,-20.00000000000009,-30.000000000000135,-20.00000000000009
-0.0,-0.0,-0.0,-0.0,-0.0,-0.0,-0.0,-10.000000000000044,-10.000000000000044,-20.00000000000009,-30.000000000000135,-20.00000000000009
-0.0,-0.0,-0.0,-0.0,-0.0,-0.0,-0.0,-10.000000000000044,-10.000000000000044,-20.00000000000009,-30.000000000000135,-20.00000000000009
-0.0,-0.0,-0.0,-0.0,-0.0,-0.0,-0.0,-10.000000000000044,-10.000000000000044,-10.000000000000044,-30.000000000000135,-20.00000000000009
-0.0,-0.0,-0.0,-0.0,-10.000000000000044,-0.0,-0.0,-10.000000000000044,-10.000000000000044,-10.000000000000044,-20.00000000000009,-10.000000000000044
-0.0,-0.0,10.000000000000044,-0.0,-10.000000000000044,-0.0,-0.0,-0.0,-10.000000000000044,-10.000000000000044,-20.00000000000009,-10.000000000000044
-0.0,-0.0,10.000000000000044,-0.0,-10.000000000000044,-0.0,-0.0,-0.0,-10.000000000000044,-10.000000000000044,-20.00000000000009,-10.000000000000044
-0.0,-0.0,10.000000000000044,-0.0,-10.000000000000044,10.000000000000044,-0.0,-0.0,-10.000000000000044,-10.000000000000044,-20.00000000000009,-10.000000000000044
-0.0,10.000000000000044,20.00000000000009,-0.0,-10.000000000000044,10.000000000000044,-0.0,-0.0,-10.000000000000044,-10.000000000000044,-20.00000000000009,-20.00000000000009
-0.0,10.000000000000044,30.000000000000135,-10.000000000000044,-10.000000000000044,20.00000000000009,-0.0,-0.0,-10.000000000000044,-10.000000000000044,-20.00000000000009,-20.00000000000009
-0.0,20.00000000000009,40.00000000000018,-10.000000000000044,-20.00000000000009,30.000000000000135,-0.0,-10.000000000000044,-10.000000000000044,-10.000000000000044,-20.00000000000009,-20.00000000000009
-0.0,30.000000000000135,50.00000000000022,-20.00000000000009,-20.00000000000009,50.00000000000022,-0.0,-10.000000000000044,-10.000000000000044,-10.000000000000044,-20.00000000000009,-20.00000000000009
-0.0,50.00000000000022,60.00000000000027,-30.000000000000135,-30.000000000000135,60.00000000000027,-0.0,-10.000000000000044,-10.000000000000044,-10.000000000000044,-20.00000000000009,-30.000000000000135
-0.0,60.00000000000027,70.00000000000031,-40.00000000000018,-20.00000000000009,70.00000000000031,-0.0,-10.000000000000044,-10.000000000000044,-10.000000000000044,-20.00000000000009,-30.000000000000135
10.000000000000044,80.00000000000036,70.00000000000031,-50.00000000000022,-20.00000000000009,80.00000000000036,-0.0,-10.000000000000044,-10.000000000000044,-10.000000000000044,-20.00000000000009,-30.000000000000135
20.00000000000009,90.0000000000004,80.00000000000036,-60.00000000000027,-20.00000000000009,90.0000000000004,-0.0,-10.000000000000044,-10.000000000000044,-10.000000000000044,-20.00000000000009,-30.000000000000135
30.000000000000135,100.00000000000044,80.00000000000036,-70.00000000000031,-20.00000000000009,100.00000000000044,-0.0,-10.000000000000044,-10.000000000000044,-10.000000000000044,-20.00000000000009,-30.000000000000135
30.000000000000135,110.00000000000048,90.0000000000004,-80.00000000000036,-20.00000000000009,100.00000000000044,-0.0,-10.000000000000044,-10.000000000000044,-0.0,-20.00000000000009,-30.000000000000135
30.000000000000135,120.00000000000054,90.0000000000004,-80.00000000000036,-20.00000000000009,100.00000000000044,-0.0,-10.000000000000044,-10.000000000000044,-0.0,-20.00000000000009,-20.00000000000009
30.000000000000135,120.00000000000054,90.0000000000004,-80.00000000000036,-20.00000000000009,110.00000000000048,-0.0,-10.000000000000044,-20.00000000000009,-0.0,-20.00000000000009,-20.00000000000009
30.000000000000135,130.00000000000057,90.0000000000004,-80.00000000000036,-20.00000000000009,110.00000000000048,-0.0,-10.000000000000044,-10.000000000000044,-0.0,-10.000000000000044,-20.00000000000009
40.00000000000018,130.00000000000057,90.0000000000004,-90.0000000000004,-20.00000000000009,110.00000000000048,-0.0,-10.000000000000044,-20.00000000000009,-0.0,-10.000000000000044,-20.00000000000009
40.00000000000018,130.00000000000057,90.0000000000004,-90.0000000000004,-20.00000000000009,110.00000000000048,-0.0,-10.000000000000044,-20.00000000000009,-0.0,-10.000000000000044,-10.000000000000044
40.00000000000018,130.00000000000057,80.00000000000036,-90.0000000000004,-10.000000000000044,100.00000000000044,-0.0,-10.000000000000044,-20.00000000000009,-10.000000000000044,-10.000000000000044,-20.00000000000009
40.00000000000018,130.00000000000057,80.00000000000036,-80.00000000000036,-10.000000000000044,100.00000000000044,-0.0,-10.000000000000044,-20.00000000000009,-10.000000000000044,-10.000000000000044,-20.00000000000009
30.000000000000135,120.00000000000054,70.00000000000031,-80.00000000000036,-10.000000000000044,90.0000000000004,-0.0,-10.000000000000044,-20.00000000000009,-10.000000000000044,-20.00000000000009,-20.00000000000009
30.000000000000135,110.00000000000048,60.00000000000027,-70.00000000000031,-10.000000000000044,80.00000000000036,-0.0,-10.000000000000044,-20.00000000000009,-10.000000000000044,-10.000000000000044,-20.00000000000009
20.00000000000009,90.0000000000004,50.00000000000022,-50.00000000000022,-10.000000000000044,70.00000000000031,-0.0,-10.000000000000044,-20.00000000000009,-0.0,-10.000000000000044,-20.00000000000009
10.000000000000044,80.00000000000036,50.00000000000022,-40.00000000000018,-10.000000000000044,50.00000000000022,-0.0,-10.000000000000044,-10.000000000000044,-0.0,-10.000000000000044,-20.00000000000009
10.000000000000044,60.00000000000027,30.000000000000135,-30.000000000000135,-10.000000000000044,40.00000000000018,-0.0,-10.000000000000044,-10.000000000000044,-0.0,-10.000000000000044,-10.000000000000044
-0.0,50.00000000000022,30.000000000000135,-20.00000000000009,-10.000000000000044,30.000000000000135,-0.0,-10.000000000000044,-10.000000000000044,-0.0,-10.000000000000044,-10.000000000000044
-0.0,30.000000000000135,20.00000000000009,-10.000000000000044,-10.000000000000044,20.00000000000009,-0.0,-10.000000000000044,-10.000000000000044,-0.0,-0.0,-10.000000000000044
-0.0,20.00000000000009,10.000000000000044,-0.0,-0.0,10.000000000000044,10.000000000000044,-0.0,-0.0,-0.0,-0.0,-10.000000000000044
-0.0,-0.0,10.000000000000044,-0.0,-0.0,-0.0,10.000000000000044,-0.0,-0.0,-0.0,-0.0,-0.0
-10.000000000000044,-0.0,-0.0,-0.0,-10.000000000000044,-0.0,10.000000000000044,-0.0,-0.0,-0.0,-0.0,-0.0
-10.000000000000044,-0.0,10.000000000000044,-0.0,-10.000000000000044,-0.0,20.00000000000009,-0.0,-0.0,-0.0,-0.0,-0.0
-10.000000000000044,-0.0,10.000000000000044,-0.0,-10.000000000000044,-0.0,10.000000000000044,-0.0,-0.0,10.000000000000044,10.000000000000044,-0.0
-20.00000000000009,-0.0,10.000000000000044,10.000000000000044,-20.00000000000009,-0.0,10.000000000000044,-0.0,-0.0,10.000000000000044,10.000000000000044,-0.0
-40.00000000000018,-0.0,30.000000000000135,20.00000000000009,-40.00000000000018,10.000000000000044,-0.0,-10.000000000000044,-0.0,10.000000000000044,10.000000000000044,10.000000000000044
-70.00000000000031,-0.0,50.00000000000022,30.000000000000135,-60.00000000000027,20.00000000000009,-0.0,-20.00000000000009,-10.000000000000044,10.000000000000044,20.00000000000009,10.000000000000044
-90.0000000000004,-0.0,80.00000000000036,40.00000000000018,-90.0000000000004,30.000000000000135,-10.000000000000044,-30.000000000000135,-20.00000000000009,-0.0,20.00000000000009,10.000000000000044
-90.0000000000004,-0.0,100.00000000000044,30.000000000000135,-100.00000000000044,60.00000000000027,-20.00000000000009,-40.00000000000018,-20.00000000000009,-0.0,20.00000000000009,20.00000000000009
-60.00000000000027,10.000000000000044,120.00000000000054,-10.000000000000044,-90.0000000000004,90.0000000000004,-40.00000000000018,-50.00000000000022,-30.000000000000135,-0.0,20.00000000000009,20.00000000000009
10.000000000000044,50.00000000000022,120.00000000000054,-70.00000000000031,-50.00000000000022,120.00000000000054,-40.00000000000018,-60.00000000000027,-30.000000000000135,-0.0,20.00000000000009,20.00000000000009
120.00000000000054,130.00000000000057,110.00000000000048,-180.0000000000008,-0.0,170.00000000000077,-50.00000000000022,-60.00000000000027,-30.000000000000135,-0.0,20.00000000000009,20.00000000000009
260.00000000000114,230.00000000000102,90.0000000000004,-310.00000000000136,80.00000000000036,220.00000000000097,-50.00000000000022,-60.00000000000027,-30.000000000000135,-0.0,20.00000000000009,20.00000000000009
410.0000000000018,350.00000000000153,50.00000000000022,-450.000000000002,170.00000000000077,270.0000000000012,-50.00000000000022,-60.00000000000027,-30.000000000000135,-0.0,30.000000000000135,20.00000000000009
550.0000000000024,470.0000000000021,20.00000000000009,-570.0000000000025,250.0000000000011,300.0000000000013,-50.00000000000022,-60.00000000000027,-30.000000000000135,-0.0,20.00000000000009,20.00000000000009
650.0000000000028,580.0000000000026,-10.000000000000044,-650.0000000000028,320.0000000000014,320.0000000000014,-50.00000000000022,-50.00000000000022,-30.000000000000135,-0.0,20.00000000000009,20.00000000000009
710.0000000000032,640.0000000000028,-50.00000000000022,-700.0000000000031,370.00000000000165,300.0000000000013,-40.00000000000018,-50.00000000000022,-40.00000000000018,-0.0,20.00000000000009,10.000000000000044
720.0000000000032,670.000000000003,-80.00000000000036,-680.0000000000031,400.00000000000176,270.0000000000012,-30.000000000000135,-40.00000000000018,-40.00000000000018,-0.0,10.000000000000044,-0.0
680.0000000000031,640.0000000000028,-110.00000000000048,-630.0000000000028,390.0000000000017,230.00000000000102,-30.000000000000135,-40.00000000000018,-40.00000000000018,-10.000000000000044,-0.0,-0.0
610.0000000000027,570.0000000000025,-130.00000000000057,-550.0000000000024,360.0000000000016,170.00000000000077,-20.00000000000009,-40.00000000000018,-40.00000000000018,-10.000000000000044,-0.0,-0.0
510.0000000000023,480.00000000000216,-130.00000000000057,-440.00000000000193,320.0000000000014,110.00000000000048,-20.00000000000009,-40.00000000000018,-50.00000000000022,-20.00000000000009,-0.0,-10.000000000000044
390.0000000000017,370.00000000000165,-130.00000000000057,-330.0000000000015,260.00000000000114,60.00000000000027,-20.00000000000009,-40.00000000000018,-50.00000000000022,-30.000000000000135,-10.000000000000044,-10.000000000000044
280.00000000000125,260.00000000000114,-130.00000000000057,-230.00000000000102,200.00000000000088,10.000000000000044,-10.000000000000044,-40.00000000000018,-60.00000000000027,-30.000000000000135,-10.000000000000044,-20.00000000000009
180.0000000000008,150.00000000000065,-110.00000000000048,-130.00000000000057,140.00000000000063,-10.000000000000044,-10.000000000000044,-40.00000000000018,-70.00000000000031,-20.00000000000009,-20.00000000000009,-20.00000000000009
100.00000000000044,70.00000000000031,-90.0000000000004,-60.00000000000027,90.0000000000004,-40.00000000000018,-10.000000000000044,-50.00000000000022,-60.00000000000027,-20.00000000000009,-20.00000000000009,-20.00000000000009
50.00000000000022,10.000000000000044,-70.00000000000031,-10.000000000000044,60.00000000000027,-40.00000000000018,-10.000000000000044,-70.00000000000031,-50.00000000000022,-20.00000000000009,-10.000000000000044,-20.00000000000009
10.000000000000044,-20.00000000000009,-60.00000000000027,-0.0,30.000000000000135,-50.00000000000022,-10.000000000000044,-70.00000000000031,-50.00000000000022,-10.000000000000044,-10.000000000000044,-20.00000000000009
-0.0,-40.00000000000018,-40.00000000000018,20.00000000000009,10.000000000000044,-40.00000000000018,-10.000000000000044,-60.00000000000027,-30.000000000000135,-10.000000000000044,-20.00000000000009,-20.00000000000009
-10.000000000000044,-40.00000000000018,-30.000000000000135,20.00000000000009,-0.0,-40.00000000000018,-0.0,-30.000000000000135,-10.000000000000044,-10.000000000000044,-30.000000000000135,-40.00000000000018
-10.000000000000044,-40.00000000000018,-30.000000000000135,30.000000000000135,-0.0,-30.000000000000135,40.00000000000018,-0.0,30.000000000000135,-0.0,-40.00000000000018,-50.00000000000022
-20.00000000000009,-40.00000000000018,-20.00000000000009,30.000000000000135,-0.0,-30.000000000000135,100.00000000000044,40.00000000000018,110.00000000000048,40.00000000000018,-40.00000000000018,-60.00000000000027
-20.00000000000009,-40.00000000000018,-20.00000000000009,30.000000000000135,-0.0,-30.000000000000135,150.00000000000065,110.00000000000048,210.00000000000094,130.00000000000057,-10.000000000000044,-40.00000000000018
-20.00000000000009,-40.00000000000018,-20.00000000000009,30.000000000000135,-0.0,-30.000000000000135,180.0000000000008,190.00000000000085,350.00000000000153,280.00000000000125,50.00000000000022,-0.0
-20.00000000000009,-50.00000000000022,-20.00000000000009,30.000000000000135,-0.0,-30.000000000000135,190.00000000000085,270.0000000000012,490.00000000000216,470.0000000000021,160.0000000000007,80.00000000000036
-20.00000000000009,-50.00000000000022,-20.00000000000009,40.00000000000018,-0.0,-40.00000000000018,150.00000000000065,320.0000000000014,610.0000000000027,670.000000000003,320.0000000000014,210.00000000000094
-30.000000000000135,-50.00000000000022,-20.00000000000009,40.00000000000018,-0.0,-40.00000000000018,70.00000000000031,330.0000000000015,670.000000000003,840.0000000000038,510.0000000000023,370.00000000000165
-30.000000000000135,-50.00000000000022,-20.00000000000009,40.00000000000018,-0.0,-40.00000000000018,-40.00000000000018,280.00000000000125,630.0000000000028,930.0000000000041,690.0000000000031,530.0000000000024
-30.000000000000135,-60.00000000000027,-30.000000000000135,40.00000000000018,-0.0,-40.00000000000018,-180.0000000000008,160.0000000000007,510.0000000000023,920.0000000000041,830.0000000000036,670.000000000003
-30.000000000000135,-60.00000000000027,-30.000000000000135,50.00000000000022,-0.0,-50.00000000000022,-330.0000000000015,10.000000000000044,320.0000000000014,820.0000000000036,900.000000000004,770.0000000000034
-30.000000000000135,-70.00000000000031,-30.000000000000135,50.00000000000022,-0.0,-50.00000000000022,-460.00000000000205,-170.00000000000077,100.00000000000044,660.000000000003,890.000000000004,810.0000000000036
-40.00000000000018,-70.00000000000031,-30.000000000000135,50.00000000000022,-0.0,-50.00000000000022,-560.0000000000025,-350.00000000000153,-110.00000000000048,460.00000000000205,810.0000000000036,780.0000000000034
-40.00000000000018,-80.00000000000036,-30.000000000000135,60.00000000000027,-0.0,-60.00000000000027,-610.0000000000027,-500.0000000000022,-290.0000000000013,270.0000000000012,680.0000000000031,710.0000000000032
-40.00000000000018,-80.00000000000036,-30.000000000000135,60.00000000000027,-0.0,-60.00000000000027,-610.0000000000027,-590.0000000000026,-410.0000000000018,90.0000000000004,530.0000000000024,600.0000000000026
-40.00000000000018,-80.00000000000036,-40.00000000000018,60.00000000000027,-0.0,-60.00000000000027,-560.0000000000025,-620.0000000000027,-480.00000000000216,-40.00000000000018,370.00000000000165,480.00000000000216
-40.00000000000018,-90.0000000000004,-40.00000000000018,60.00000000000027,-0.0,-60.00000000000027,-480.00000000000216,-590.0000000000026,-490.00000000000216,-140.00000000000063,220.00000000000097,350.00000000000153
-40.00000000000018,-90.0000000000004,-40.00000000000018,60.00000000000027,-0.0,-60.00000000000027,-380.0000000000017,-520.0000000000023,-450.000000000002,-200.00000000000088,90.0000000000004,230.00000000000102
-40.00000000000018,-90.0000000000004,-40.00000000000018,60.00000000000027,-0.0,-60.00000000000027,-270.0000000000012,-430.00000000000193,-380.0000000000017,-220.00000000000097,-0.0,130.00000000000057
-40.00000000000018,-90.0000000000004,-40.00000000000018,60.00000000000027,-0.0,-60.00000000000027,-170.00000000000077,-320.0000000000014,-300.0000000000013,-190.00000000000085,-60.00000000000027,50.00000000000022
-40.00000000000018,-80.00000000000036,-30.000000000000135,60.00000000000027,-0.0,-60.00000000000027,-80.00000000000036,-220.00000000000097,-210.00000000000094,-150.00000000000065,-90.0000000000004,-0.0
-30.000000000000135,-80.00000000000036,-40.00000000000018,50.00000000000022,-0.0,-50.00000000000022,-20.00000000000009,-140.00000000000063,-130.00000000000057,-110.00000000000048,-90.0000000000004,-20.00000000000009
-30.000000000000135,-70.00000000000031,-40.00000000000018,40.00000000000018,-0.0,-50.00000000000022,20.00000000000009,-70.00000000000031,-80.00000000000036,-80.00000000000036,-80.00000000000036,-40.00000000000018
-20.00000000000009,-70.00000000000031,-40.00000000000018,40.00000000000018,-0.0,-50.00000000000022,50.00000000000022,-30.000000000000135,-50.00000000000022,-70.00000000000031,-70.00000000000031,-40.00000000000018
-10.000000000000044,-60.00000000000027,-40.00000000000018,30.000000000000135,10.000000000000044,-50.00000000000022,70.00000000000031,-10.000000000000044,-40.00000000000018,-60.00000000000027,-70.00000000000031,-60.00000000000027
-10.000000000000044,-60.00000000000027,-40.00000000000018,30.000000000000135,10.000000000000044,-50.00000000000022,80.00000000000036,-0.0,-40.00000000000018,-60.00000000000027,-70.00000000000031,-70.00000000000031
-0.0,-50.00000000000022,-40.00000000000018,20.00000000000009,10.000000000000044,-40.00000000000018,80.00000000000036,-0.0,-40.00000000000018,-60.00000000000027,-80.00000000000036,-80.00000000000036
-0.0,-50.00000000000022,-30.000000000000135,20.00000000000009,10.000000000000044,-40.00000000000018,80.00000000000036,-0.0,-40.00000000000018,-60.00000000000027,-90.0000000000004,-90.0000000000004
-0.0,-40.00000000000018,-30.000000000000135,20.00000000000009,-0.0,-30.000000000000135,70.00000000000031,-0.0,-30.000000000000135,-60.00000000000027,-100.00000000000044,-100.00000000000044
-10.000000000000044,-40.00000000000018,-20.00000000000009,20.00000000000009,-0.0,-30.000000000000135,70.00000000000031,-0.0,-30.000000000000135,-60.00000000000027,-110.00000000000048,-110.00000000000048
-10.000000000000044,-30.000000000000135,-20.00000000000009,20.00000000000009,-0.0,-20.00000000000009,70.00000000000031,-0.0,-20.00000000000009,-50.00000000000022,-110.00000000000048,-120.00000000000054
-10.000000000000044,-30.000000000000135,-10.000000000000044,10.000000000000044,-0.0,-20.00000000000009,70.00000000000031,-0.0,-20.00000000000009,-50.00000000000022,-110.00000000000048,-120.00000000000054
-10.000000000000044,-20.00000000000009,-0.0,10.000000000000044,-0.0,-10.000000000000044,70.00000000000031,10.000000000000044,-10.000000000000044,-40.00000000000018,-120.00000000000054,-120.00000000000054
-10.000000000000044,-20.00000000000009,-0.0,10.000000000000044,-0.0,-10.000000000000044,70.00000000000031,10.000000000000044,-10.000000000000044,-40.00000000000018,-120.00000000000054,-120.00000000000054
-10.000000000000044,-10.000000000000044,-0.0,-0.0,-0.0,-0.0,70.00000000000031,10.000000000000044,-0.0,-40.00000000000018,-120.00000000000054,-120.00000000000054
-0.0,-10.000000000000044,-0.0,-0.0,-0.0,-0.0,70.00000000000031,10.000000000000044,-0.0,-30.000000000000135,-110.00000000000048,-120.00000000000054
-0.0,-0.0,-0.0,-0.0,-0.0,-0.0,70.00000000000031,20.00000000000009,-0.0,-30.000000000000135,-110.00000000000048,-120.00000000000054
10.000000000000044,-0.0,-0.0,-10.000000000000044,-0.0,-0.0,70.00000000000031,20.00000000000009,-0.0,-20.00000000000009,-110.00000000000048,-120.00000000000054
10.000000000000044,10.000000000000044,-0.0,-20.00000000000009,-0.0,10.000000000000044,70.00000000000031,30.000000000000135,-0.0,-20.00000000000009,-100.00000000000044,-120.00000000000054
30.000000000000135,20.00000000000009,-0.0,-30.000000000000135,10.000000000000044,10.000000000000044,70.00000000000031,30.000000000000135,10.000000000000044,-10.000000000000044,-100.00000000000044,-110.00000000000048
40.00000000000018,30.000000000000135,-0.0,-50.00000000000022,10.000000000000044,20.00000000000009,70.00000000000031,40.00000000000018,20.00000000000009,-10.000000000000044,-100.00000000000044,-110.00000000000048
50.00000000000022,40.00000000000018,10.000000000000044,-60.00000000000027,10.000000000000044,30.000000000000135,70.00000000000031,40.00000000000018,20.00000000000009,-0.0,-90.0000000000004,-110.00000000000048
50.00000000000022,60.00000000000027,10.000000000000044,-70.00000000000031,10.000000000000044,40.00000000000018,70.00000000000031,50.00000000000022,30.000000000000135,-0.0,-90.0000000000004,-110.00000000000048
60.00000000000027,70.00000000000031,20.00000000000009,-80.00000000000036,10.000000000000044,50.00000000000022,80.00000000000036,50.00000000000022,40.00000000000018,-0.0,-80.00000000000036,-110.00000000000048
70.00000000000031,90.0000000000004,20.00000000000009,-90.0000000000004,20.00000000000009,60.00000000000027,70.00000000000031,60.00000000000027,50.00000000000022,-0.0,-80.00000000000036,-100.00000000000044
70.00000000000031,100.00000000000044,30.000000000000135,-90.0000000000004,20.00000000000009,70.00000000000031,70.00000000000031,60.00000000000027,50.00000000000022,-0.0,-70.00000000000031,-100.00000000000044
80.00000000000036,110.00000000000048,30.000000000000135,-100.00000000000044,20.00000000000009,70.00000000000031,70.00000000000031,60.00000000000027,60.00000000000027,-0.0,-70.00000000000031,-100.00000000000044
80.00000000000036,110.00000000000048,40.00000000000018,-110.00000000000048,20.00000000000009,80.00000000000036,70.00000000000031,70.00000000000031,60.00000000000027,-0.0,-70.00000000000031,-100.00000000000044
90.0000000000004,130.00000000000057,40.00000000000018,-120.00000000000054,20.00000000000009,90.0000000000004,60.00000000000027,70.00000000000031,70.00000000000031,10.000000000000044,-60.00000000000027,-90.0000000000004
100.00000000000044,140.00000000000063,40.00000000000018,-120.00000000000054,20.00000000000009,90.0000000000004,60.00000000000027,80.00000000000036,80.00000000000036,20.00000000000009,-60.00000000000027,-90.0000000000004
110.00000000000048,140.00000000000063,40.00000000000018,-130.00000000000057,30.000000000000135,100.00000000000044,60.00000000000027,80.00000000000036,90.0000000000004,20.00000000000009,-60.00000000000027,-90.0000000000004
120.00000000000054,150.00000000000065,30.000000000000135,-140.00000000000063,40.00000000000018,90.0000000000004,60.00000000000027,90.0000000000004,100.00000000000044,40.00000000000018,-50.00000000000022,-90.0000000000004
120.00000000000054,160.0000000000007,30.000000000000135,-140.00000000000063,40.00000000000018,90.0000000000004,70.00000000000031,100.00000000000044,110.00000000000048,50.00000000000022,-40.00000000000018,-80.00000000000036
120.00000000000054,160.0000000000007,30.000000000000135,-140.00000000000063,40.00000000000018,90.0000000000004,70.00000000000031,110.00000000000048,130.00000000000057,60.00000000000027,-30.000000000000135,-70.00000000000031
120.00000000000054,150.00000000000065,20.00000000000009,-130.00000000000057,40.00000000000018,80.00000000000036,70.00000000000031,130.00000000000057,150.00000000000065,80.00000000000036,-20.00000000000009,-60.00000000000027
120.00000000000054,150.00000000000065,10.000000000000044,-130.00000000000057,50.00000000000022,70.00000000000031,80.00000000000036,140.00000000000063,170.00000000000077,100.00000000000044,-10.000000000000044,-50.00000000000022
120.00000000000054,140.00000000000063,-0.0,-130.00000000000057,50.00000000000022,70.00000000000031,80.00000000000036,160.0000000000007,180.0000000000008,110.00000000000048,-0.0,-40.00000000000018
120.00000000000054,130.00000000000057,-0.0,-120.00000000000054,60.00000000000027,50.00000000000022,90.0000000000004,170.00000000000077,200.00000000000088,120.00000000000054,-0.0,-30.000000000000135
120.00000000000054,120.00000000000054,-10.000000000000044,-120.00000000000054,60.00000000000027,50.00000000000022,90.0000000000004,180.0000000000008,210.00000000000094,130.00000000000057,10.000000000000044,-20.00000000000009
120.00000000000054,110.00000000000048,-10.000000000000044,-120.00000000000054,70.00000000000031,40.00000000000018,90.0000000000004,200.00000000000088,220.00000000000097,140.00000000000063,20.00000000000009,-20.00000000000009
120.00000000000054,110.00000000000048,-10.000000000000044,-110.00000000000048,70.00000000000031,40.00000000000018,90.0000000000004,210.00000000000094,240.00000000000108,150.00000000000065,30.000000000000135,-10.000000000000044
120.00000000000054,100.00000000000044,-20.00000000000009,-110.00000000000048,70.00000000000031,30.000000000000135,90.0000000000004,210.00000000000094,250.0000000000011,160.0000000000007,30.000000000000135,-0.0
110.00000000000048,100.00000000000044,-10.000000000000044,-100.00000000000044,60.00000000000027,30.000000000000135,90.0000000000004,230.00000000000102,270.0000000000012,180.0000000000008,50.00000000000022,-0.0
100.00000000000044,90.0000000000004,-10.000000000000044,-100.00000000000044,60.00000000000027,30.000000000000135,90.0000000000004,240.00000000000108,280.00000000000125,190.00000000000085,60.00000000000027,-0.0
90.0000000000004,80.00000000000036,-10.000000000000044,-80.00000000000036,50.00000000000022,20.00000000000009,90.0000000000004,240.00000000000108,300.0000000000013,200.00000000000088,70.00000000000031,10.000000000000044
70.00000000000031,70.00000000000031,-20.00000000000009,-70.00000000000031,40.00000000000018,10.000000000000044,90.0000000000004,250.0000000000011,310.00000000000136,210.00000000000094,80.00000000000036,20.00000000000009
60.00000000000027,50.00000000000022,-20.00000000000009,-60.00000000000027,40.00000000000018,-0.0,90.0000000000004,260.00000000000114,320.0000000000014,220.00000000000097,100.00000000000044,30.000000000000135
60.00000000000027,40.00000000000018,-30.000000000000135,-50.00000000000022,40.00000000000018,-0.0,90.0000000000004,270.0000000000012,330.0000000000015,230.00000000000102,110.00000000000048,40.00000000000018
60.00000000000027,30.000000000000135,-30.000000000000135,-40.00000000000018,40.00000000000018,-0.0,90.0000000000004,270.0000000000012,340.00000000000153,240.00000000000108,120.00000000000054,50.00000000000022
60.00000000000027,20.00000000000009,-40.00000000000018,-40.00000000000018,50.00000000000022,-0.0,80.00000000000036,270.0000000000012,340.00000000000153,250.0000000000011,130.00000000000057,70.00000000000031
60.00000000000027,20.00000000000009,-40.00000000000018,-40.00000000000018,50.00000000000022,-10.000000000000044,80.00000000000036,270.0000000000012,340.00000000000153,260.00000000000114,150.00000000000065,80.00000000000036
60.00000000000027,10.000000000000044,-40.00000000000018,-40.00000000000018,50.00000000000022,-10.000000000000044,70.00000000000031,270.0000000000012,340.00000000000153,270.0000000000012,160.0000000000007,90.0000000000004
50.00000000000022,10.000000000000044,-40.00000000000018,-30.000000000000135,50.00000000000022,-10.000000000000044,70.00000000000031,260.00000000000114,340.00000000000153,270.0000000000012,170.00000000000077,100.00000000000044
40.00000000000018,10.000000000000044,-40.00000000000018,-30.000000000000135,40.00000000000018,-10.000000000000044,60.00000000000027,250.0000000000011,330.0000000000015,270.0000000000012,180.0000000000008,110.00000000000048
30.000000000000135,10.000000000000044,-30.000000000000135,-20.00000000000009,30.000000000000135,-10.000000000000044,50.00000000000022,240.00000000000108,320.0000000000014,260.00000000000114,180.0000000000008,110.00000000000048
30.000000000000135,-0.0,-20.00000000000009,-20.00000000000009,20.00000000000009,-0.0,40.00000000000018,220.00000000000097,310.00000000000136,260.00000000000114,190.00000000000085,120.00000000000054
20.00000000000009,-0.0,-10.000000000000044,-10.000000000000044,20.00000000000009,-0.0,30.000000000000135,210.00000000000094,290.0000000000013,250.0000000000011,180.0000000000008,120.00000000000054
20.00000000000009,-0.0,-10.000000000000044,-10.000000000000044,10.000000000000044,-0.0,10.000000000000044,190.00000000000085,270.0000000000012,250.0000000000011,180.0000000000008,120.00000000000054
20.00000000000009,10.000000000000044,-10.000000000000044,-10.000000000000044,10.000000000000044,-0.0,-0.0,170.00000000000077,260.00000000000114,240.00000000000108,180.0000000000008,120.00000000000054
20.00000000000009,10.000000000000044,-10.000000000000044,-10.000000000000044,10.000000000000044,-0.0,-0.0,160.0000000000007,240.00000000000108,230.00000000000102,180.0000000000008,120.00000000000054
20.00000000000009,10.000000000000044,-10.000000000000044,-10.000000000000044,10.000000000000044,-0.0,-0.0,140.00000000000063,220.00000000000097,210.00000000000094,170.00000000000077,120.00000000000054
20.00000000000009,-0.0,-10.000000000000044,-10.000000000000044,10.000000000000044,-0.0,-0.0,120.00000000000054,210.00000000000094,200.00000000000088,170.00000000000077,110.00000000000048
20.00000000000009,-0.0,-10.000000000000044,-10.000000000000044,10.000000000000044,-0.0,-10.000000000000044,100.00000000000044,190.00000000000085,190.00000000000085,160.0000000000007,100.00000000000044
10.000000000000044,-0.0,-10.000000000000044,-10.000000000000044,10.000000000000044,-0.0,-20.00000000000009,90.0000000000004,180.0000000000008,180.0000000000008,150.00000000000065,100.00000000000044
10.000000000000044,-0.0,-10.000000000000044,-0.0,10.000000000000044,-0.0,-20.00000000000009,80.00000000000036,170.00000000000077,170.00000000000077,150.00000000000065,90.0000000000004
10.000000000000044,-0.0,-10.000000000000044,-0.0,10.000000000000044,-0.0,-20.00000000000009,70.00000000000031,150.00000000000065,160.0000000000007,140.00000000000063,90.0000000000004
10.000000000000044,-0.0,-10.000000000000044,-0.0,10.000000000000044,-0.0,-20.00000000000009,50.00000000000022,140.00000000000063,150.00000000000065,140.00000000000063,80.00000000000036
10.000000000000044,-0.0,-10.000000000000044,-0.0,10.000000000000044,-0.0,-20.00000000000009,40.00000000000018,130.00000000000057,140.00000000000063,130.00000000000057,80.00000000000036
10.000000000000044,-0.0,-10.000000000000044,-0.0,10.000000000000044,-0.0,-20.00000000000009,30.000000000000135,120.00000000000054,130.00000000000057,120.00000000000054,70.00000000000031
10.000000000000044,-0.0,-0.0,-10.000000000000044,10.000000000000044,-0.0,-20.00000000000009,20.00000000000009,110.00000000000048,120.00000000000054,110.00000000000048,60.00000000000027
10.000000000000044,-0.0,-0.0,-10.000000000000044,10.000000000000044,-0.0,-30.000000000000135,20.00000000000009,100.00000000000044,100.00000000000044,100.00000000000044,60.00000000000027
20.00000000000009,-0.0,-0.0,-10.000000000000044,10.000000000000044,-0.0,-30.000000000000135,10.000000000000044,90.0000000000004,100.00000000000044,90.0000000000004,50.00000000000022
20.00000000000009,10.000000000000044,-0.0,-10.000000000000044,10.000000000000044,-0.0,-20.00000000000009,-0.0,80.00000000000036,90.0000000000004,90.0000000000004,40.00000000000018
20.00000000000009,10.000000000000044,-0.0,-20.00000000000009,10.000000000000044,-0.0,-20.00000000000009,-0.0,80.00000000000036,80.00000000000036,80.00000000000036,40.00000000000018
20.00000000000009,10.000000000000044,-0.0,-20.00000000000009,10.000000000000044,-0.0,-20.00000000000009,-0.0,80.00000000000036,70.00000000000031,70.00000000000031,30.000000000000135
10.000000000000044,10.000000000000044,-0.0,-10.000000000000044,-0.0,-0.0,-20.00000000000009,-0.0,70.00000000000031,60.00000000000027,60.00000000000027,30.000000000000135
10.000000000000044,10.000000000000044,-0.0,-10.000000000000044,-0.0,-0.0,-20.00000000000009,-0.0,70.00000000000031,50.00000000000022,50.00000000000022,20.00000000000009
10.000000000000044,10.000000000000044,-0.0,-10.000000000000044,-0.0,-0.0,-10.000000000000044,-0.0,70.00000000000031,50.00000000000022,50.00000000000022,10.000000000000044
10.000000000000044,10.000000000000044,-0.0,-10.000000000000044,-0.0,-0.0,-10.000000000000044,10.000000000000044,70.00000000000031,50.00000000000022,40.00000000000018,10.000000000000044
-0.0,-0.0,-0.0,-0.0,-0.0,-0.0,-10.000000000000044,10.000000000000044,70.00000000000031,40.00000000000018,40.00000000000018,-0.0
-0.0,-0.0,-0.0,-0.0,-0.0,-0.0,-0.0,10.000000000000044,70.00000000000031,40.00000000000018,30.000000000000135,-0.0
-0.0,-0.0,-0.0,-0.0,-0.0,-0.0,-0.0,20.00000000000009,70.00000000000031,40.00000000000018,30.000000000000135,-0.0
-0.0,-0.0,-0.0,-0.0,-0.0,-0.0,-0.0,20.00000000000009,70.00000000000031,40.00000000000018,30.000000000000135,-0.0
-0.0,-0.0,-0.0,-0.0,-0.0,-0.0,-0.0,20.00000000000009,80.00000000000036,40.00000000000018,30.000000000000135,-0.0
-0.0,-0.0,-0.0,-0.0,-0.0,-0.0,-0.0,30.000000000000135,80.00000000000036,40.00000000000018,30.000000000000135,-0.0
-0.0,-0.0,-0.0,-0.0,-0.0,-0.0,-0.0,30.000000000000135,80.00000000000036,50.00000000000022,30.000000000000135,-0.0
-0.0,-0.0,-0.0,-0.0,-0.0,-0.0,-0.0,30.000000000000135,80.00000000000036,50.00000000000022,30.000000000000135,-0.0
-0.0,-0.0,-0.0,-0.0,-0.0,-0.0,-0.0,30.000000000000135,80.00000000000036,50.00000000000022,30.000000000000135,-0.0
-0.0,-0.0,-0.0,-0.0,-0.0,-0.0,-0.0,40.00000000000018,80.00000000000036,50.00000000000022,40.00000000000018,10.000000000000044
-0.0,-0.0,-0.0,-0.0,-0.0,-0.0,-0.0,40.00000000000018,80.00000000000036,50.00000000000022,40.00000000000018,10.000000000000044
-0.0,-0.0,-0.0,-0.0,-0.0,-0.0,-0.0,40.00000000000018,80.00000000000036,50.00000000000022,40.00000000000018,10.000000000000044
-0.0,-0.0,-0.0,-0.0,-0.0,-0.0,-0.0,40.00000000000018,80.00000000000036,50.00000000000022,30.000000000000135,10.000000000000044
-0.0,-0.0,-0.0,-0.0,-0.0,-0.0,-0.0,40.00000000000018,80.00000000000036,50.00000000000022,30.000000000000135,10.000000000000044
-0.0,-0.0,-0.0,-0.0,-0.0,-0.0,-0.0,40.00000000000018,80.00000000000036,40.00000000000018,30.000000000000135,-0.0
-0.0,-0.0,-0.0,-0.0,-0.0,-0.0,-0.0,40.00000000000018,70.00000000000031,40.00000000000018,20.00000000000009,-0.0
-0.0,-0.0,-0.0,-0.0,-0.0,-0.0,-0.0,40.00000000000018,70.00000000000031,40.00000000000018,20.00000000000009,-0.0
-0.0,-0.0,-0.0,-0.0,-0.0,-0.0,-0.0,40.00000000000018,70.00000000000031,40.00000000000018,20.00000000000009,-0.0
-0.0,-10.000000000000044,-0.0,-0.0,-0.0,-10.000000000000044,-0.0,40.00000000000018,70.00000000000031,30.000000000000135,20.00000000000009,-0.0
-0.0,-10.000000000000044,-10.000000000000044,-0.0,-0.0,-10.000000000000044,10.000000000000044,40.00000000000018,70.00000000000031,30.000000000000135,10.000000000000044,-0.0
-0.0,-10.000000000000044,-10.000000000000044,-0.0,-0.0,-10.000000000000044,10.000000000000044,40.00000000000018,60.00000000000027,30.000000000000135,10.000000000000044,-0.0
-0.0,-10.000000000000044,-10.000000000000044,-0.0,-0.0,-10.000000000000044,10.000000000000044,40.00000000000018,60.00000000000027,30.000000000000135,10.000000000000044,-0.0
-0.0,-10.000000000000044,-10.000000000000044,-0.0,-0.0,-10.000000000000044,10.000000000000044,40.00000000000018,60.00000000000027,20.00000000000009,10.000000000000044,-0.0
-0.0,-10.000000000000044,-10.000000000000044,-0.0,-0.0,-10.000000000000044,10.000000000000044,40.00000000000018,50.00000000000022,20.00000000000009,10.000000000000044,-0.0
-0.0,-10.000000000000044,-10.000000000000044,-0.0,-0.0,-10.000000000000044,10.000000000000044,40.00000000000018,50.00000000000022,20.00000000000009,10.000000000000044,-0.0
-0.0,-10.000000000000044,-10.000000000000044,-0.0,-0.0,-0.0,10.000000000000044,40.00000000000018,50.00000000000022,20.00000000000009,10.000000000000044,-0.0
-0.0,-0.0,-0.0,-0.0,-0.0,-0.0,10.000000000000044,40.00000000000018,40.00000000000018,10.000000000000044,-0.0,-0.0
-0.0,-0.0,-0.0,-0.0,-0.0,-0.0,10.000000000000044,40.00000000000018,40.00000000000018,10.000000000000044,-0.0,-0.0
-0.0,-0.0,-0.0,-0.0,-0.0,-0.0,10.000000000000044,30.000000000000135,30.000000000000135,10.000000000000044,-0.0,-0.0
-0.0,-0.0,-0.0,-0.0,-0.0,-0.0,10.000000000000044,30.000000000000135,30.000000000000135,-0.0,-0.0,-0.0
-0.0,-0.0,-0.0,-0.0,-0.0,-0.0,10.000000000000044,30.000000000000135,30.000000000000135,-0.0,-0.0,-0.0
-10.000000000000044,-0.0,-0.0,-0.0,-0.0,-0.0,10.000000000000044,20.00000000000009,20.00000000000009,-0.0,-0.0,-10.000000000000044
-10.000000000000044,-0.0,-0.0,-0.0,-0.0,-0.0,10.000000000000044,20.00000000000009,20.00000000000009,-0.0,-0.0,-10.000000000000044
-10.000000000000044,-10.000000000000044,-0.0,10.000000000000044,-0.0,-0.0,10.000000000000044,20.00000000000009,20.00000000000009,-0.0,-0.0,-10.000000000000044
-10.000000000000044,-10.000000000000044,-0.0,10.000000000000044,-0.0,-0.0,10.000000000000044,20.00000000000009,20.00000000000009,-0.0,-0.0,-10.000000000000044
-10.000000000000044,-10.000000000000044,-0.0,10.000000000000044,-0.0,-10.000000000000044,10.000000000000044,20.00000000000009,20.00000000000009,-0.0,-0.0,-10.000000000000044
-10.000000000000044,-10.000000000000044,-10.000000000000044,10.000000000000044,-0.0,-10.000000000000044,10.000000000000044,20.00000000000009,10.000000000000044,-0.0,-0.0,-10.000000000000044
-10.000000000000044,-20.00000000000009,-10.000000000000044,10.000000000000044,-0.0,-20.00000000000009,-0.0,10.000000000000044,10.000000000000044,-0.0,-0.0,-10.000000000000044
-10.000000000000044,-20.00000000000009,-10.000000000000044,10.000000000000044,-0.0,-20.00000000000009,-0.0,10.000000000000044,10.000000000000044,-0.0,-0.0,-10.000000000000044
-0.0,-20.00000000000009,-10.000000000000044,10.000000000000044,-0.0,-20.00000000000009,-0.0,10.000000000000044,-0.0,-10.000000000000044,-0.0,-10.000000000000044
-0.0,-20.00000000000009,-10.000000000000044,10.000000000000044,-0.0,-10.000000000000044,-0.0,-0.0,-0.0,-10.000000000000044,-10.000000000000044,-10.000000000000044
-0.0,-20.00000000000009,-10.000000000000044,10.000000000000044,-0.0,-10.000000000000044,-0.0,-0.0,-0.0,-10.000000000000044,-10.000000000000044,-10.000000000000044
-0.0,-20.00000000000009,-0.0,10.000000000000044,-0.0,-10.000000000000044,-0.0,-0.0,-0.0,-10.000000000000044,-10.000000000000044,-10.000000000000044
-0.0,-10.000000000000044,-0.0,-0.0,-0.0,-0.0,-0.0,-0.0,-0.0,-10.000000000000044,-10.000000000000044,-10.000000000000044
-10.000000000000044,-10.000000000000044,-0.0,-0.0,-0.0,-0.0,-0.0,-0.0,-0.0,-10.000000000000044,-10.000000000000044,-10.000000000000044
-10.000000000000044,-0.0,-0.0,-0.0,-0.0,-0.0,-0.0,-0.0,-0.0,-20.00000000000009,-10.000000000000044,-10.000000000000044
-10.000000000000044,-0.0,-0.0,-0.0,-0.0,-0.0,-0.0,-0.0,-0.0,-20.00000000000009,-10.000000000000044,-10.000000000000044
-10.000000000000044,-0.0,-0.0,-0.0,-0.0,-0.0,-0.0,-0.0,-0.0,-20.00000000000009,-10.000000000000044,-10.000000000000044
-0.0,-0.0,-0.0,-0.0,-0.0,-0.0,-0.0,-0.0,-0.0,-20.00000000000009,-10.000000000000044,-10.000000000000044
-0.0,-0.0,-0.0,-0.0,-0.0,-0.0,-0.0,-0.0,-0.0,-20.00000000000009,-10.000000000000044,-10.000000000000044
-0.0,-0.0,-0.0,-0.0,-0.0,-0.0,-0.0,-0.0,-0.0,-10.000000000000044,-10.000000000000044,-10.000000000000044
-0.0,-0.0,-0.0,-0.0,-0.0,-0.0,-0.0,-0.0,-0.0,-20.00000000000009,-0.0,-10.000000000000044
-10.000000000000044,-10.000000000000044,-0.0,10.000000000000044,-0.0,-0.0,-0.0,-0.0,-0.0,-20.00000000000009,-0.0,-0.0
-10.000000000000044,-10.000000000000044,-0.0,10.000000000000044,-0.0,-0.0,-0.0,-0.0,-0.0,-20.00000000000009,-0.0,-0.0
-10.000000000000044,-10.000000000000044,-0.0,10.000000000000044,-0.0,-10.000000000000044,-0.0,-0.0,-0.0,-20.00000000000009,-10.000000000000044,-0.0
-20.00000000000009,-10.000000000000044,-0.0,10.000000000000044,-10.000000000000044,-0.0,-0.0,-0.0,-0.0,-20.00000000000009,-10.000000000000044,-10.000000000000044
-20.00000000000009,-10.000000000000044,-0.0,10.000000000000044,-10.000000000000044,-0.0,-0.0,-0.0,-0.0,-20.00000000000009,-10.000000000000044,-10.000000000000044
-20.00000000000009,-10.000000000000044,-0.0,10.000000000000044,-10.000000000000044,-0.0,-0.0,-0.0,-0.0,-20.00000000000009,-10.000000000000044,-10.000000000000044
-20.00000000000009,-10.000000000000044,-0.0,10.000000000000044,-10.000000000000044,-0.0,-0.0,-0.0,-0.0,-20.00000000000009,-10.000000000000044,-10.000000000000044
-10.000000000000044,-10.000000000000044,-0.0,10.000000000000044,-10.000000000000044,-0.0,-0.0,-0.0,-10.000000000000044,-20.00000000000009,-10.000000000000044,-10.000000000000044
-10.000000000000044,-10.000000000000044,10.000000000000044,-0.0,-10.000000000000044,-0.0,-0.0,-0.0,-10.000000000000044,-20.00000000000009,-10.000000000000044,-10.000000000000044
-10.000000000000044,-0.0,10.000000000000044,-0.0,-10.000000000000044,-0.0,-0.0,-0.0,-10.000000000000044,-20.00000000000009,-10.000000000000044,-10.000000000000044
-0.0,-0.0,10.000000000000044,-0.0,-10.000000000000044,-0.0,-0.0,-0.0,-10.000000000000044,-20.00000000000009,-10.000000000000044,-10.000000000000044
-0.0,-0.0,10.000000000000044,-0.0,-0.0,10.000000000000044,-0.0,-0.0,-10.000000000000044,-20.00000000000009,-10.000000000000044,-10.000000000000044
-0.0,10.000000000000044,10.000000000000044,-0.0,-0.0,10.000000000000044,-0.0,-0.0,-10.000000000000044,-20.00000000000009,-10.000000000000044,-10.000000000000044
-0.0,10.000000000000044,20.00000000000009,-10.000000000000044,-10.000000000000044,20.00000000000009,-0.0,-0.0,-20.00000000000009,-20.00000000000009,-10.000000000000044,-10.000000000000044
-0.0,20.00000000000009,20.00000000000009,-10.000000000000044,-10.000000000000044,20.00000000000009,-0.0,-0.0,-20.00000000000009,-20.00000000000009,-10.000000000000044,-10.000000000000044
-0.0,20.00000000000009,30.000000000000135,-10.000000000000044,-10.000000000000044,30.000000000000135,-0.0,-0.0,-10.000000000000044,-20.00000000000009,-0.0,-0.0
-0.0,30.000000000000135,40.00000000000018,-20.00000000000009,-20.00000000000009,40.00000000000018,-0.0,-0.0,-10.000000000000044,-20.00000000000009,-0.0,-0.0
-0.0,40.00000000000018,50.00000000000022,-20.00000000000009,-20.00000000000009,50.00000000000022,-0.0,-0.0,-10.000000000000044,-20.00000000000009,-0.0,-0.0
-0.0,50.00000000000022,60.00000000000027,-30.000000000000135,-30.000000000000135,60.00000000000027,-0.0,-0.0,-10.000000000000044,-20.00000000000009,-0.0,-0.0
-0.0,60.00000000000027,70.00000000000031,-40.00000000000018,-40.00000000000018,70.00000000000031,-0.0,-0.0,-20.00000000000009,-20.00000000000009,-0.0,-0.0
-0.0,70.00000000000031,90.0000000000004,-40.00000000000018,-40.00000000000018,90.0000000000004,-0.0,-0.0,-20.00000000000009,-20.00000000000009,-0.0,-0.0
-0.0,90.0000000000004,100.00000000000044,-50.00000000000022,-50.00000000000022,100.00000000000044,-0.0,-0.0,-20.00000000000009,-20.00000000000009,-0.0,-0.0
-0.0,100.00000000000044,100.00000000000044,-50.00000000000022,-50.00000000000022,100.00000000000044,-0.0,-10.000000000000044,-20.00000000000009,-30.000000000000135,-0.0,-0.0
-0.0,100.00000000000044,100.00000000000044,-60.00000000000027,-50.00000000000022,110.00000000000048,-0.0,-10.000000000000044,-30.000000000000135,-30.000000000000135,-10.000000000000044,-0.0
10.000000000000044,110.00000000000048,100.00000000000044,-70.00000000000031,-40.00000000000018,110.00000000000048,-0.0,-10.000000000000044,-30.000000000000135,-30.000000000000135,-10.000000000000044,-0.0
20.00000000000009,120.00000000000054,100.00000000000044,-80.00000000000036,-40.00000000000018,110.00000000000048,-0.0,-10.000000000000044,-30.000000000000135,-30.000000000000135,-0.0,-0.0
30.000000000000135,130.00000000000057,90.0000000000004,-80.00000000000036,-30.000000000000135,110.00000000000048,-0.0,-10.000000000000044,-20.00000000000009,-20.00000000000009,-0.0,-0.0
40.00000000000018,130.00000000000057,80.00000000000036,-80.00000000000036,-20.00000000000009,100.00000000000044,-0.0,-10.000000000000044,-20.00000000000009,-20.00000000000009,-0.0,-0.0
40.00000000000018,120.00000000000054,70.00000000000031,-80.00000000000036,-10.000000000000044,90.0000000000004,-0.0,-10.000000000000044,-20.00000000000009,-20.00000000000009,-0.0,-0.0
40.00000000000018,110.00000000000048,50.00000000000022,-70.00000000000031,-0.0,80.00000000000036,-0.0,-10.000000000000044,-10.000000000000044,-10.000000000000044,-0.0,-0.0
30.000000000000135,100.00000000000044,50.00000000000022,-60.00000000000027,-0.0,60.00000000000027,-0.0,-0.0,-10.000000000000044,-10.000000000000044,-0.0,10.000000000000044
20.00000000000009,80.00000000000036,40.00000000000018,-50.00000000000022,-0.0,50.00000000000022,10.000000000000044,-0.0,-10.000000000000044,-10.000000000000044,-0.0,10.000000000000044
20.00000000000009,70.00000000000031,30.000000000000135,-40.00000000000018,-0.0,40.00000000000018,10.000000000000044,-0.0,-0.0,-0.0,-0.0,10.000000000000044
10.000000000000044,50.00000000000022,20.00000000000009,-30.000000000000135,-0.0,30.000000000000135,10.000000000000044,-0.0,-0.0,-0.0,10.000000000000044,20.00000000000009
-0.0,40.00000000000018,20.00000000000009,-10.000000000000044,-0.0,20.00000000000009,-0.0,-10.000000000000044,-10.000000000000044,-0.0,10.000000000000044,30.000000000000135
-0.0,20.00000000000009,10.000000000000044,-0.0,-10.000000000000044,10.000000000000044,-0.0,-10.000000000000044,-10.000000000000044,-0.0,20.00000000000009,30.000000000000135
-10.000000000000044,10.000000000000044,10.000000000000044,-0.0,-10.000000000000044,10.000000000000044,-10.000000000000044,-20.00000000000009,-20.00000000000009,-0.0,20.00000000000009,30.000000000000135
-10.000000000000044,-0.0,20.00000000000009,-0.0,-10.000000000000044,10.000000000000044,-20.00000000000009,-40.00000000000018,-30.000000000000135,-10.000000000000044,20.00000000000009,40.00000000000018
-10.000000000000044,-0.0,10.000000000000044,-0.0,-10.000000000000044,-0.0,-30.000000000000135,-50.00000000000022,-40.00000000000018,-10.000000000000044,20.00000000000009,40.00000000000018
-10.000000000000044,-0.0,10.000000000000044,-0.0,-10.000000000000044,-0.0,-40.00000000000018,-50.00000000000022,-40.00000000000018,-10.000000000000044,20.00000000000009,40.00000000000018
-10.000000000000044,-0.0,10.000000000000044,-0.0,-10.000000000000044,-0.0,-50.00000000000022,-60.00000000000027,-40.00000000000018,-10.000000000000044,20.00000000000009,50.00000000000022
-10.000000000000044,-0.0,10.000000000000044,-0.0,-10.000000000000044,-0.0,-50.00000000000022,-60.00000000000027,-40.00000000000018,-10.000000000000044,30.000000000000135,50.00000000000022
-30.000000000000135,-0.0,10.000000000000044,10.000000000000044,-20.00000000000009,-0.0,-50.00000000000022,-60.00000000000027,-40.00000000000018,-10.000000000000044,30.000000000000135,60.00000000000027
-50.00000000000022,-10.000000000000044,30.000000000000135,30.000000000000135,-40.00000000000018,-0.0,-50.00000000000022,-60.00000000000027,-40.00000000000018,-10.000000000000044,30.000000000000135,60.00000000000027
-80.00000000000036,-10.000000000000044,50.00000000000022,40.00000000000018,-70.00000000000031,10.000000000000044,-50.00000000000022,-50.00000000000022,-40.00000000000018,-10.000000000000044,30.000000000000135,60.00000000000027
-100.00000000000044,-20.00000000000009,70.00000000000031,50.00000000000022,-90.0000000000004,20.00000000000009,-40.00000000000018,-50.00000000000022,-40.00000000000018,-10.000000000000044,30.000000000000135,50.00000000000022
-80.00000000000036,-10.000000000000044,90.0000000000004,30.000000000000135,-90.0000000000004,50.00000000000022,-40.00000000000018,-40.00000000000018,-50.00000000000022,-20.00000000000009,20.00000000000009,50.00000000000022
-40.00000000000018,10.000000000000044,100.00000000000044,-20.00000000000009,-70.00000000000031,80.00000000000036,-30.000000000000135,-40.00000000000018,-50.00000000000022,-20.00000000000009,10.000000000000044,40.00000000000018
50.00000000000022,60.00000000000027,100.00000000000044,-100.00000000000044,-30.000000000000135,130.00000000000057,-30.000000000000135,-40.00000000000018,-50.00000000000022,-30.000000000000135,10.000000000000044,30.000000000000135
170.00000000000077,160.0000000000007,90.0000000000004,-220.00000000000097,40.00000000000018,180.0000000000008,-30.000000000000135,-40.00000000000018,-60.00000000000027,-30.000000000000135,-0.0,20.00000000000009
320.0000000000014,270.0000000000012,70.00000000000031,-360.0000000000016,120.00000000000054,240.00000000000108,-20.00000000000009,-40.00000000000018,-60.00000000000027,-40.00000000000018,-0.0,10.000000000000044
470.0000000000021,400.00000000000176,50.00000000000022,-500.0000000000022,200.00000000000088,280.00000000000125,-20.00000000000009,-40.00000000000018,-70.00000000000031,-40.00000000000018,-0.0,-0.0
590.0000000000026,520.0000000000023,20.00000000000009,-600.0000000000026,280.00000000000125,310.00000000000136,-20.00000000000009,-40.00000000000018,-70.00000000000031,-50.00000000000022,-10.000000000000044,-0.0
670.000000000003,610.0000000000027,-10.000000000000044,-670.000000000003,330.0000000000015,320.0000000000014,-20.00000000000009,-40.00000000000018,-70.00000000000031,-50.00000000000022,-10.000000000000044,-0.0
700.0000000000031,660.000000000003,-40.00000000000018,-680.0000000000031,370.00000000000165,300.0000000000013,-20.00000000000009,-40.00000000000018,-70.00000000000031,-50.00000000000022,-10.000000000000044,-0.0
680.0000000000031,650.0000000000028,-70.00000000000031,-640.0000000000028,380.0000000000017,260.00000000000114,-20.00000000000009,-50.00000000000022,-70.00000000000031,-40.00000000000018,-10.000000000000044,-0.0
